x,y
0.0,-3.713142656031926e-05
0.00400200100050025,-5.108328455940306e-05
0.0080040020010005,-7.005178077480788e-05
0.012006003001500749,-9.575525301137992e-05
0.016008004002001,-0.0001304694895328
0.02001000500250125,-0.0001771977072911
0.024012006003001497,-0.0002398887352447
0.028014007003501748,-0.0003237159214487
0.032016008004002,-0.0004354321857003
0.03601800900450225,-0.0005838201160078
0.0400200100050025,-0.000780260142849
0.04402201100550275,-0.0010394447113233
0.048024012006002995,-0.0013802721025521
0.052026013006503245,-0.0018269602274025
0.056028014007003496,-0.0024104284200035
0.06003001500750375,-0.0031700040796592
0.064032016008004,-0.0041555210171937
0.06803401700850424,-0.0054298876026382
0.0720360180090045,-0.0070722153007192
0.07603801900950474,-0.0091816118907961
0.080040020010005,-0.0118817585144182
0.08404202101050524,-0.0153264055210696
0.0880440220110055,-0.019705938647956
0.09204602301150575,-0.0252551840246066
0.09604802401200599,-0.0322626373654083
0.10005002501250625,-0.041081318887888
0.10405202601300649,-0.0521414701951477
0.10805402701350675,-0.0659653216324813
0.11205602801400699,-0.0831841673232764
0.11605802901450725,-0.1045579888573065
0.1200600300150075,-0.1309978658874967
0.12406203101550775,-0.1635914009269852
0.128064032016008,-0.203631364472865
0.13206603301650824,-0.2526477330949183
0.13606803401700848,-0.3124432450656124
0.14007003501750875,-0.3851325331433551
0.144072036018009,-0.4731848099194863
0.14807403701850924,-0.5794699754469804
0.15207603801900949,-16.585641504446258
0.15607803901950976,-43.37031383092813
0.16008004002001,-67.50303242955553
0.16408204102051024,-87.47793029028568
0.1680840420210105,-102.0542933719804
0.17208604302151073,-110.33524206740316
0.176088044022011,-111.8247650591791
0.18009004502251125,-106.45950902302248
0.1840920460230115,-94.61331954468052
0.18809404702351173,-77.07424684020604
0.19209604802401198,-54.99546599983874
0.19609804902451225,-29.82320598054513
0.2001000500250125,-3.206230700346248
0.20410205102551274,23.10742208351761
0.20810405202601298,47.379936226796026
0.21210605302651325,67.99254761966495
0.2161080540270135,83.54685415657275
0.22011005502751374,92.952226403094
0.22411205602801398,95.49381922151778
0.22811405702851423,90.87691078701536
0.2321160580290145,79.24479126517733
0.23611805902951474,61.16909452165656
0.240120060030015,37.61320712368767
0.24412206103051523,9.871089689188771
0.2481240620310155,-20.51460101824468
0.25212606303151575,-34.601793494160226
0.256128064032016,-38.61182160858503
0.26013006503251623,-42.92106815062535
0.2641320660330165,-47.524961367354166
0.2681340670335167,-52.4135182488415
0.27213606803401696,-57.57059832387432
0.27613806903451726,-62.97315426951922
0.2801400700350175,-68.59049458043258
0.28414207103551775,-74.38357550531653
0.288144072036018,-80.30434126099276
0.29214607303651824,-86.2951331081726
0.2961480740370185,-92.28818914353752
0.3001500750375187,-98.20525755603448
0.30415207603801897,-103.95734653882631
0.3081540770385192,-109.44463397371318
0.3121560780390195,-114.55655935033444
0.31615807903951976,-119.17211909570987
0.32016008004002,-123.16038453031756
0.32416208104052024,-126.3812590091345
0.3281640820410205,-128.6864874410234
0.33216608304152073,-129.9209273176758
0.336168084042021,-129.92408565487975
0.3401700850425212,-128.5319209069667
0.34417208604302146,-125.5789030352726
0.34817408704352176,-120.9003185913202
0.352176088044022,-114.33480103508091
0.35617808904452225,-105.72705968850576
0.3601800900450225,-94.93077388318312
0.36418209104552274,-81.81161217248642
0.368184092046023,-66.25033012846093
0.3721860930465232,-48.14589442473404
0.37618809404702347,-27.41857581376229
0.3801900950475237,-4.012949431246484
0.38419209604802396,22.09926221532046
0.38819409704852426,50.91657002654986
0.3921960980490245,82.4053897101878
0.39619809904952474,116.49806951919886
0.400200100050025,153.09133730478894
0.40420210105052523,192.0452254569153
0.4082041020510255,233.1825262384004
0.4122061030515257,276.2888223310348
0.41620810405202596,321.1131281922596
0.4202101050525262,367.36916720639925
0.4242121060530265,414.73729778934063
0.42821410705352675,462.8670887988933
0.432216108054027,511.380531084263
0.43621810905452724,559.8758580812748
0.4402201100550275,607.9319343571174
0.4442221110555277,655.113157280471
0.44822411205602797,700.9748039008272
0.4522261130565282,745.068743024577
0.45622811405702846,786.9494217237292
0.46023011505752875,826.1800264318815
0.464232116058029,862.3387116640383
0.46823411705852924,895.02478449133
0.4722361180590295,923.8647304053796
0.47623811905952973,948.5179662564158
0.48024012006003,968.6822086144743
0.4842421210605302,984.0983511840049
0.48824412206103046,994.5547527266666
0.4922461230615307,999.8908471711804
0.496248124062031,1000.0
0.5002501250625312,994.8315493239782
0.5042521260630315,984.391985955201
0.5082541270635317,968.7452438849176
0.512256128064032,948.0120904516756
0.5162581290645323,922.3686237040048
0.5202601300650325,892.0439025706453
0.5242621310655328,857.3167529999067
0.528264132066033,818.5118097842313
0.5322661330665333,775.9948689404815
0.5362681340670334,730.1676389049252
0.5402701350675337,681.461990108653
0.5442721360680339,630.3338114674854
0.5482741370685342,577.2565887593539
0.5522761380690345,522.7148236507746
0.5562781390695347,467.1974132240452
0.560280140070035,411.1911082722564
0.5642821410705352,355.1741644642755
0.5682841420710355,299.6102938965132
0.5722861430715357,244.94301576203932
0.576288144072036,191.5904941514493
0.5802901450725362,139.94093866754193
0.5842921460730365,90.34862993302052
0.5882941470735368,43.13061756462197
0.592296148074037,-1.4358768437528098
0.5962981490745373,-43.11533436447059
0.6003001500750375,-81.71508860012744
0.6043021510755378,-117.0857627540564
0.6083041520760379,-149.12101940138686
0.6123061530765382,-177.75666079737448
0.6163081540770384,-202.96912849830272
0.6203101550775387,-224.7734604128894
0.624312156078039,-243.2207710068076
0.6283141570785392,-258.39532615902453
0.6323161580790395,-270.411288076637
0.6363181590795397,-279.4092077247745
0.64032016008004,-285.5523424766338
0.6443221610805402,-289.0228752350329
0.6483241620810405,-290.01810825777426
0.6523261630815407,-445.7794269139951
0.656328164082041,-470.1361329698096
0.6603301650825413,-485.1913776366292
0.6643321660830415,-490.3492778474259
0.6683341670835418,-485.347155625427
0.672336168084042,-470.2722990479529
0.6763381690845423,-445.5646826374064
0.6803401700850424,-412.0054554518736
0.6843421710855427,-370.6915862197216
0.6883441720860429,-322.9976209990619
0.6923461730865432,-270.5260369829375
0.6963481740870435,-215.04814468807072
0.7003501750875437,-158.43788074140528
0.704352176088044,-102.60112888239384
0.7083541770885442,-49.4033955308938
0.7123561780890445,-0.5987405565466584
0.7163581790895447,42.2371794066871
0.720360180090045,77.76725698956967
0.7243621810905452,104.94384017805864
0.7283641820910455,123.04833681554828
0.7323661830915458,131.71790749598833
0.736368184092046,130.95815423002009
0.7403701850925463,121.14127454411882
0.7443721860930465,102.9897350945174
0.7483741870935467,77.54610180167217
0.7523761880940469,46.13022134222932
0.7563781890945472,10.285458981572708
0.7603801900950474,-28.283860482869983
0.7643821910955477,-67.7813063868981
0.7683841920960479,-106.3907333933176
0.7723861930965482,-142.34930941151384
0.7763881940970485,-174.01825266984278
0.7803901950975487,-199.9484416963484
0.784392196098049,-218.9382677593043
0.7883941970985492,-230.0814113196325
0.7923961980990495,-232.8026296902733
0.7963981990995497,-226.88012602920247
0.80040020010005,-212.45361052794084
0.8044022011005502,-190.0177413673966
0.8084042021010505,-160.40122240800665
0.8124062031015508,-124.7324128525426
0.816408204102051,-84.3928479026701
0.8204102051025512,-40.960556748623794
0.8244122061030514,3.854524612157103
0.8284142071035517,48.280429858725846
0.8324162081040519,90.55549954804252
0.8364182091045522,129.000251994262
0.8404202101050524,162.08588057681757
0.8444222111055527,188.4966074702775
0.848424212106053,207.1833729389207
0.8524262131065532,-0.8763309555718142
0.8564282141070535,-0.7142210051978555
0.8604302151075537,-0.5802129110343672
0.864432216108054,-0.4698222502953448
0.8684342171085542,-0.3792034019983585
0.8724362181090545,-0.3050733498532045
0.8764382191095547,-0.2446417606525403
0.880440220110055,-0.1955473793907694
0.8844422211105553,-0.1558006389335277
0.8884442221110554,-0.1237322704466616
0.8924462231115557,-0.0979476173844247
0.8964482241120559,-0.0772862969738484
0.9004502251125562,-0.0607868152133472
0.9044522261130564,-0.0476557209819095
0.9084542271135567,-0.0372408787138904
0.9124562281140569,-0.0290084442976926
0.9164582291145572,-0.0225231427805954
0.9204602301150575,-0.0174314668085811
0.9244622311155577,-0.01344743952676
0.928464232116058,-0.0103406132553118
0.9324662331165582,-0.00792600427577
0.9364682341170585,-0.0060556934220437
0.9404702351175587,-0.0046118510216664
0.944472236118059,-0.0035009724401615
0.9484742371185592,-0.0026491365927768
0.9524762381190595,-0.0019981240044376
0.9564782391195598,-0.0015022531481446
0.96048024012006,-0.0011258138028347
0.9644822411205602,-0.0008409940512819
0.9684842421210604,-0.0006262133533755
0.9724862431215607,-0.0004647879888566
0.9764882441220609,-0.0003438672034471
0.9804902451225612,-0.0002535887673
0.9844922461230614,-0.0001864115266841
0.9884942471235617,-0.0001365900614091
0.992496248124062,-9.97629098609656e-05
0.9964982491245622,-7.263114062729884e-05
1.0005002501250624,-5.270847385990516e-05
1.0045022511255628,-3.8127813953666975e-05
1.008504252126063,-2.7492062231781343e-05
1.0125062531265632,-1.9759535704619043e-05
1.0165082541270634,-1.415631474475666e-05
1.0205102551275638,-1.0109456072050955e-05
1.024512256128064,-7.1963042864850845e-06
1.0285142571285641,-5.106171984104736e-06
1.0325162581290646,-3.6114830988237967e-06
1.0365182591295647,-2.546126626036449e-06
1.040520260130065,-1.7892816416239674e-06
1.0445222611305651,-1.2533770519231897e-06
1.0485242621310655,-8.751633555825212e-07
1.0525262631315657,-6.091172362430894e-07
1.056528264132066,-4.225878971465076e-07
1.060530265132566,-2.922386438652127e-07
1.0645322661330665,-2.0144786833466493e-07
1.0685342671335667,-1.3841787258681328e-07
1.0725362681340669,-9.480388669126413e-08
1.0765382691345673,-6.472388972544838e-08
1.0805402701350675,-4.4046112602297844e-08
1.0845422711355677,-2.9878244867623726e-08
1.0885442721360679,-2.0202592973077933e-08
1.0925462731365683,-1.3616443605401284e-08
1.0965482741370685,-9.14797197697547e-09
1.1005502751375686,-6.126190892809647e-09
1.104552276138069,-4.089411368638694e-09
1.1085542771385692,-2.721044584420881e-09
1.1125562781390694,-1.8047419206628163e-09
1.1165582791395696,-1.1931612832113707e-09
1.12056028014007,-7.86299144306584e-10
1.1245622811405702,-5.165127706216701e-10
1.1285642821410704,-3.3820415615422754e-10
1.1325662831415706,-2.2074020302592312e-10
1.136568284142071,-1.4361128248911558e-10
1.1405702851425712,-9.313229678131479e-11
1.1445722861430714,-6.020280134096292e-11
1.1485742871435718,-3.879160283135658e-11
1.152576288144072,-2.4915143337869324e-11
1.1565782891445722,-1.5951212461994078e-11
1.1605802901450724,-1.017955179301137e-11
1.1645822911455728,-6.475424780230124e-12
1.168584292146073,-4.1059392713463806e-12
1.1725862931465731,-2.5951438441412174e-12
1.1765882941470736,-1.6349896395712648e-12
1.1805902951475737,-1.026770147984376e-12
1.184592296148074,-6.427411754177372e-13
1.1885942971485741,-4.0105475866288394e-13
1.1925962981490745,-2.49445623384396e-13
1.1965982991495747,-1.5465101269442774e-13
1.200600300150075,-9.557280100004566e-14
1.204602301150575,-5.887359119297063e-14
1.2086043021510755,-3.615025874604462e-14
1.2126063031515757,-2.2126206538165852e-14
1.2166083041520759,-1.3499173665771914e-14
1.2206103051525763,-8.209412504904478e-15
1.2246123061530765,-4.9764729167473266e-15
1.2286143071535767,-3.0070170059449136e-15
1.2326163081540769,-1.8111515726561345e-15
1.2366183091545773,-1.0873725986649344e-15
1.2406203101550775,-6.50738717668799e-16
1.2446223111555776,-3.8818574672104653e-16
1.248624312156078,-2.3082199958141133e-16
1.2526263131565782,-1.368105186387168e-16
1.2566283141570784,-8.082886053610219e-17
1.2606303151575786,-4.7601221897287584e-17
1.264632316158079,-2.794308958363329e-17
1.2686343171585792,-1.635066509562384e-17
1.2726363181590794,-9.53676544746326e-18
1.2766383191595796,-5.544615802347436e-18
1.28064032016008,-3.2132646340039457e-18
1.2846423211605802,-1.856206156994175e-18
1.2886443221610804,-1.0688348430001285e-18
1.2926463231615808,-6.134789654274502e-19
1.296648324162081,-3.5098893846942103e-19
1.3006503251625812,-2.0016671544408872e-19
1.3046523261630814,-1.1378761010314327e-19
1.3086543271635818,-6.447669519653823e-20
1.312656328164082,-3.641792883122115e-20
1.3166583291645821,-2.050370746247965e-20
1.3206603301650826,-1.1506791172382746e-20
1.3246623311655827,-6.4369590569798025e-21
1.328664332166083,-3.589318048707611e-21
1.3326663331665831,-1.9950225992501178e-21
1.3366683341670835,-1.105320888565466e-21
1.3406703351675837,-6.104268334795682e-22
1.344672336168084,-3.360342434423447e-22
1.348674337168584,-1.8439032821289272e-22
1.3526763381690845,-1.0085499673950202e-22
1.3566783391695847,-5.498717185665148e-23
1.3606803401700849,-2.9883401388134083e-23
1.3646823411705853,-1.6188378666674392e-23
1.3686843421710855,-8.741407419052516e-24
1.3726863431715857,-4.7050479254804696e-24
1.3766883441720859,-2.5243607691079056e-24
1.3806903451725863,-1.350030171304728e-24
1.3846923461730865,-7.196812835575466e-25
1.3886943471735866,-3.824209039901883e-25
1.392696348174087,-2.025572167133589e-25
1.3966983491745872,-1.0694451114013414e-25
1.4007003501750874,-5.628257516362847e-26
1.4047023511755876,-2.952528525131965e-26
1.408704352176088,-1.5438991424691386e-26
1.4127063531765882,-8.047267381221953e-27
1.4167083541770884,-4.1810235998341865e-27
1.4207103551775886,-2.1653170124487382e-27
1.424712356178089,-1.1178024032222199e-27
1.4287143571785892,-5.7519257565827615e-28
1.4327163581790894,-2.950300047519247e-28
1.4367183591795898,-1.5084252119957532e-28
1.44072036018009,-7.68751649877727e-29
1.4447223611805902,-3.9052875861420413e-29
1.4487243621810904,-1.9775372043877139e-29
1.4527263631815908,-9.981618951200801e-30
1.456728364182091,-5.022061101415247e-30
1.4607303651825911,-2.5186491832128664e-30
1.4647323661830915,-1.2590936952880996e-30
1.4687343671835917,-6.274124041676309e-31
1.472736368184092,-3.116397403480708e-31
1.4767383691845921,-1.5429691715418864e-31
1.4807403701850925,-7.61493754936823e-32
1.4847423711855927,-3.7461065428462044e-32
1.488744372186093,-1.8369552890715314e-32
1.492746373186593,-8.978870929058413e-33
1.4967483741870935,-4.374712865570151e-33
1.5007503751875937,-2.1246238874896284e-33
1.5047523761880939,-1.0285354114050559e-33
1.5087543771885943,-4.963192491457144e-34
1.5127563781890945,-2.3873037023499173e-34
1.5167583791895947,-1.1446136110320302e-34
1.5207603801900949,-5.470346326498788e-35
1.5247623811905953,-2.606006055750336e-35
1.5287643821910955,-1.2374871581561549e-35
1.5327663831915956,-5.8574779576340244e-36
1.5367683841920958,-2.7636644181981897e-36
1.5407703851925962,-1.2997643865608556e-36
1.5447723861930964,-6.093245005510712e-37
1.5487743871935966,-2.847326900255319e-37
1.552776388194097,-1.3262662041010894e-37
1.5567783891945972,-6.157845055933686e-38
1.5607803901950974,-2.8499122807977476e-38
1.5647823911955976,-1.3147370767355916e-38
1.568784392196098,-6.04576149579458e-39
1.5727863931965982,-2.7711995004458377e-39
1.5767883941970984,-1.2661619427460516e-39
1.5807903951975988,-5.766541227594183e-40
1.584792396198099,-2.6178588645820934e-40
1.5887943971985992,-1.1846273044761427e-40
1.5927963981990994,-5.343452215151042e-41
1.5967983991995998,-2.4025188480745945e-41
1.6008004002001,-1.0767536655331026e-41
1.6048024012006001,-4.810282652294231e-42
1.6088044022011003,-2.1420495642874574e-42
1.6128064032016007,-9.508086343974174e-43
1.616808404202101,-4.206892361788303e-43
1.6208104052026011,-1.855386385420442e-43
1.6248124062031015,-8.156653483159106e-44
1.6288144072036017,-3.574327494765051e-44
1.632816408204102,-1.5612820008485093e-44
1.636818409204602,-6.797872990685325e-45
1.6408204102051025,-2.9503220233082865e-45
1.6448224112056027,-1.2763520439768843e-45
1.6488244122061029,-5.503972016775977e-46
1.6528264132066033,-2.3658469068960788e-46
1.6568284142071035,-1.0136820147375381e-46
1.6608304152076037,-4.3293383251236067e-47
1.6648324162081038,-1.843087666100326e-47
1.6688344172086043,-7.821231516940883e-48
1.6728364182091044,-3.3083311374607515e-48
1.6768384192096046,-1.3949141674657928e-48
1.6808404202101048,-5.8626056192566985e-49
1.6848424212106052,-2.456057650143865e-49
1.6888444222111054,-1.0256309438578775e-49
1.6928464232116056,-4.269218236488393e-50
1.696848424212106,-1.7713740514640057e-50
1.7008504252126062,-7.326168161536367e-51
1.7048524262131064,-3.0202866954551725e-51
1.7088544272136066,-1.24114961828154e-51
1.712856428214107,-5.083991180670144e-52
1.7168584292146072,-2.075822050359168e-52
1.7208604302151074,-8.448510249906889e-53
1.7248624312156078,-3.427479229589214e-53
1.728864432216108,-1.386035040879732e-53
1.7328664332166082,-5.586994840094728e-54
1.7368684342171083,-2.2448483748620048e-54
1.7408704352176088,-8.99084347092746e-55
1.744872436218109,-3.5893725973977655e-55
1.7488744372186091,-1.4283720093170687e-55
1.7528764382191093,-5.665898643217654e-56
1.7568784392196097,-2.240273044023767e-56
1.76088044022011,-8.829534083266386e-57
1.76488244122061,-3.4688003421327643e-57
1.7688844422211105,-1.3583932077579098e-57
1.7728864432216107,-5.302447549776248e-58
1.776888444222111,-2.063155410899753e-58
1.780890445222611,-8.001882817236478e-59
1.7848924462231115,-3.0935498090678277e-59
1.7888944472236117,-1.1921385194406146e-59
1.7928964482241119,-4.579320187268828e-60
1.7968984492246123,-1.7533958823528143e-60
1.8009004502251125,-6.692118707539566e-61
1.8049024512256127,-2.5459623193748363e-61
1.8089044522261128,-9.654837962540709e-62
1.8129064532266133,-3.649578328150064e-62
1.8169084542271134,-1.3751341600183208e-62
1.8209104552276136,-5.164783653505414e-63
1.8249124562281138,-1.9335877219677253e-63
1.8289144572286142,-7.215730546433781e-64
1.8329164582291144,-2.684116838971789e-64
1.8369184592296146,-9.952385918164355e-65
1.840920460230115,-3.678389222476245e-65
1.8449224612306152,-1.3551670602768697e-65
1.8489244622311154,-4.976599300139793e-66
1.8529264632316156,-1.821701405680908e-66
1.856928464232116,-6.64701095750537e-67
1.8609304652326162,-2.417576792058237e-67
1.8649324662331164,-8.764736075746881e-68
1.8689344672336168,-3.1673940042784258e-68
1.872936468234117,-1.1409589499575538e-68
1.8769384692346172,-4.0967798854337076e-69
1.8809404702351173,-1.4662901716884082e-69
1.8849424712356178,-5.2312069170037634e-70
1.888944472236118,-1.860323857248923e-70
1.8929464732366181,-6.594469964904918e-71
1.8969484742371183,-2.330107273265918e-71
1.9009504752376187,-8.206852318252175e-72
1.904952476238119,-2.8812570358758365e-72
1.908954477238619,-1.008305346653549e-72
1.9129564782391195,-3.5172789984136333e-73
1.9169584792396197,-1.2229994160051522e-73
1.92096048024012,-4.238872584537074e-74
1.92496248124062,-1.4644655407917384e-74
1.9289644822411205,-5.043274810908075e-75
1.9329664832416207,-1.731214147066138e-75
1.9369684842421209,-5.923707870267545e-76
1.9409704852426213,-2.0204176583117402e-76
1.9449724862431215,-6.868997528202117e-77
1.9489744872436217,-2.3278245634548247e-77
1.9529764882441218,-7.863426197758117e-78
1.9569784892446223,-2.6477566380341037e-78
1.9609804902451224,-8.886873492862909e-79
1.9649824912456226,-2.9732033418869994e-79
1.9689844922461228,-9.915278304929366e-80
1.9729864932466232,-3.2960203690135698e-80
1.9769884942471234,-1.0921431022288888e-80
1.9809904952476236,-3.607230458919146e-81
1.984992496248124,-1.1876074508905438e-81
1.9889944972486242,-3.897414708497421e-82
1.9929964982491244,-1.2749260881383264e-82
1.9969984992496246,-4.157172809414137e-83
2.0010005002501248,-3.713142656031926e-05
2.005002501250625,-5.108328455940306e-05
2.0090045022511256,-7.005178077480788e-05
2.0130065032516256,-9.575525301137992e-05
2.017008504252126,-0.0001304694895328
2.0210105052526264,-0.0001771977072911
2.0250125062531263,-0.0002398887352447
2.0290145072536268,-0.0003237159214487
2.0330165082541267,-0.0004354321857003
2.037018509254627,-0.0005838201160078
2.0410205102551275,-0.000780260142849
2.0450225112556275,-0.0010394447113233
2.049024512256128,-0.0013802721025521
2.0530265132566283,-0.0018269602274025
2.0570285142571283,-0.0024104284200035
2.0610305152576287,-0.0031700040796592
2.065032516258129,-0.0041555210171937
2.069034517258629,-0.0054298876026382
2.0730365182591295,-0.0070722153007192
2.0770385192596295,-0.0091816118907961
2.08104052026013,-0.0118817585144182
2.0850425212606303,-0.0153264055210696
2.0890445222611302,-0.019705938647956
2.0930465232616307,-0.0252551840246066
2.097048524262131,-0.0322626373654083
2.101050525262631,-0.041081318887888
2.1050525262631314,-0.0521414701951477
2.109054527263632,-0.0659653216324813
2.113056528264132,-0.0831841673232764
2.1170585292646322,-0.1045579888573065
2.121060530265132,-0.1309978658874967
2.1250625312656326,-0.1635914009269852
2.129064532266133,-0.203631364472865
2.133066533266633,-0.2526477330949183
2.1370685342671334,-0.3124432450656124
2.141070535267634,-0.3851325331433551
2.1450725362681338,-0.4731848099194863
2.149074537268634,-0.5794699754469804
2.1530765382691346,-16.585641504446258
2.1570785392696346,-43.37031383092813
2.161080540270135,-67.50303242955553
2.1650825412706354,-87.47793029028568
2.1690845422711353,-102.0542933719804
2.1730865432716358,-110.33524206740316
2.1770885442721357,-111.8247650591791
2.181090545272636,-106.45950902302248
2.1850925462731365,-94.61331954468052
2.1890945472736365,-77.07424684020604
2.193096548274137,-54.99546599983874
2.1970985492746373,-29.82320598054513
2.2011005502751373,-3.206230700346248
2.2051025512756377,23.10742208351761
2.209104552276138,47.379936226796026
2.213106553276638,67.99254761966495
2.2171085542771385,83.54685415657275
2.2211105552776385,92.952226403094
2.225112556278139,95.49381922151778
2.2291145572786393,90.87691078701536
2.2331165582791392,79.24479126517733
2.2371185592796397,61.16909452165656
2.24112056028014,37.61320712368767
2.24512256128064,9.871089689188771
2.2491245622811404,-20.51460101824468
2.253126563281641,-34.601793494160226
2.257128564282141,-38.61182160858503
2.2611305652826412,-42.92106815062535
2.265132566283141,-47.524961367354166
2.2691345672836416,-52.4135182488415
2.273136568284142,-57.57059832387432
2.277138569284642,-62.97315426951922
2.2811405702851424,-68.59049458043258
2.285142571285643,-74.38357550531653
2.2891445722861428,-80.30434126099276
2.293146573286643,-86.2951331081726
2.2971485742871436,-92.28818914353752
2.3011505752876436,-98.20525755603448
2.305152576288144,-103.95734653882631
2.3091545772886444,-109.44463397371318
2.3131565782891443,-114.55655935033444
2.3171585792896447,-119.17211909570987
2.3211605802901447,-123.16038453031756
2.325162581290645,-126.3812590091345
2.3291645822911455,-128.6864874410234
2.3331665832916455,-129.9209273176758
2.337168584292146,-129.92408565487975
2.3411705852926463,-128.5319209069667
2.3451725862931463,-125.5789030352726
2.3491745872936467,-120.9003185913202
2.353176588294147,-114.33480103508091
2.357178589294647,-105.72705968850576
2.3611805902951475,-94.93077388318312
2.3651825912956475,-81.81161217248642
2.369184592296148,-66.25033012846093
2.3731865932966483,-48.14589442473404
2.3771885942971482,-27.41857581376229
2.3811905952976486,-4.012949431246484
2.385192596298149,22.09926221532046
2.389194597298649,50.91657002654986
2.3931965982991494,82.4053897101878
2.39719859929965,116.49806951919886
2.40120060030015,153.09133730478894
2.4052026013006502,192.0452254569153
2.40920460230115,233.1825262384004
2.4132066033016506,276.2888223310348
2.417208604302151,321.1131281922596
2.421210605302651,367.36916720639925
2.4252126063031514,414.73729778934063
2.429214607303652,462.8670887988933
2.4332166083041518,511.380531084263
2.437218609304652,559.8758580812748
2.4412206103051526,607.9319343571174
2.4452226113056525,655.113157280471
2.449224612306153,700.9748039008272
2.4532266133066534,745.068743024577
2.4572286143071533,786.9494217237292
2.4612306153076537,826.1800264318815
2.4652326163081537,862.3387116640383
2.469234617308654,895.02478449133
2.4732366183091545,923.8647304053796
2.4772386193096545,948.5179662564158
2.481240620310155,968.6822086144743
2.4852426213106553,984.0983511840049
2.4892446223111553,994.5547527266666
2.4932466233116557,999.8908471711804
2.497248624312156,1000.0
2.501250625312656,994.8315493239782
2.5052526263131565,984.391985955201
2.5092546273136564,968.7452438849176
2.513256628314157,948.0120904516756
2.5172586293146573,922.3686237040048
2.5212606303151572,892.0439025706453
2.5252626313156576,857.3167529999067
2.529264632316158,818.5118097842313
2.533266633316658,775.9948689404815
2.5372686343171584,730.1676389049252
2.541270635317659,681.461990108653
2.545272636318159,630.3338114674854
2.549274637318659,577.2565887593539
2.553276638319159,522.7148236507746
2.5572786393196596,467.1974132240452
2.56128064032016,411.1911082722564
2.56528264132066,355.1741644642755
2.5692846423211604,299.6102938965132
2.573286643321661,244.94301576203932
2.5772886443221608,191.5904941514493
2.581290645322661,139.94093866754193
2.5852926463231616,90.34862993302052
2.5892946473236615,43.13061756462197
2.593296648324162,-1.4358768437528098
2.597298649324662,-43.11533436447059
2.6013006503251623,-81.71508860012744
2.6053026513256627,-117.0857627540564
2.6093046523261627,-149.12101940138686
2.613306653326663,-177.75666079737448
2.6173086543271635,-202.96912849830272
2.6213106553276635,-224.7734604128894
2.625312656328164,-243.2207710068076
2.6293146573286643,-258.39532615902453
2.6333166583291643,-270.411288076637
2.6373186593296647,-279.4092077247745
2.641320660330165,-285.5523424766338
2.645322661330665,-289.0228752350329
2.6493246623311655,-290.01810825777426
2.6533266633316654,-445.7794269139951
2.657328664332166,-470.1361329698096
2.6613306653326663,-485.1913776366292
2.6653326663331662,-490.3492778474259
2.6693346673336666,-485.347155625427
2.673336668334167,-470.2722990479529
2.677338669334667,-445.5646826374064
2.6813406703351674,-412.0054554518736
2.685342671335668,-370.6915862197216
2.689344672336168,-322.9976209990619
2.693346673336668,-270.5260369829375
2.697348674337168,-215.04814468807072
2.7013506753376686,-158.43788074140528
2.705352676338169,-102.60112888239384
2.709354677338669,-49.4033955308938
2.7133566783391694,-0.5987405565466584
2.71735867933967,42.2371794066871
2.7213606803401698,77.76725698956967
2.72536268134067,104.94384017805864
2.7293646823411706,123.04833681554828
2.7333666833416705,131.71790749598833
2.737368684342171,130.95815423002009
2.741370685342671,121.14127454411882
2.7453726863431713,102.9897350945174
2.7493746873436717,77.54610180167217
2.7533766883441717,46.13022134222932
2.757378689344672,10.285458981572708
2.7613806903451725,-28.283860482869983
2.7653826913456725,-67.7813063868981
2.769384692346173,-106.3907333933176
2.7733866933466733,-142.34930941151384
2.7773886943471733,-174.01825266984278
2.7813906953476737,-199.9484416963484
2.785392696348174,-218.9382677593043
2.789394697348674,-230.0814113196325
2.7933966983491745,-232.8026296902733
2.7973986993496744,-226.88012602920247
2.801400700350175,-212.45361052794084
2.8054027013506753,-190.0177413673966
2.8094047023511752,-160.40122240800665
2.8134067033516756,-124.7324128525426
2.817408704352176,-84.3928479026701
2.821410705352676,-40.960556748623794
2.8254127063531764,3.854524612157103
2.829414707353677,48.280429858725846
2.833416708354177,90.55549954804252
2.837418709354677,129.000251994262
2.841420710355177,162.08588057681757
2.8454227113556776,188.4966074702775
2.849424712356178,207.1833729389207
2.853426713356678,-0.8763309555718142
2.8574287143571784,-0.7142210051978555
2.861430715357679,-0.5802129110343672
2.8654327163581788,-0.4698222502953448
2.869434717358679,-0.3792034019983585
2.8734367183591796,-0.3050733498532045
2.8774387193596795,-0.2446417606525403
2.88144072036018,-0.1955473793907694
2.88544272136068,-0.1558006389335277
2.8894447223611803,-0.1237322704466616
2.8934467233616807,-0.0979476173844247
2.8974487243621807,-0.0772862969738484
2.901450725362681,-0.0607868152133472
2.9054527263631815,-0.0476557209819095
2.9094547273636815,-0.0372408787138904
2.913456728364182,-0.0290084442976926
2.9174587293646823,-0.0225231427805954
2.9214607303651823,-0.0174314668085811
2.9254627313656827,-0.01344743952676
2.929464732366183,-0.0103406132553118
2.933466733366683,-0.00792600427577
2.9374687343671835,-0.0060556934220437
2.9414707353676834,-0.0046118510216664
2.945472736368184,-0.0035009724401615
2.9494747373686843,-0.0026491365927768
2.9534767383691842,-0.0019981240044376
2.9574787393696846,-0.0015022531481446
2.961480740370185,-0.0011258138028347
2.965482741370685,-0.0008409940512819
2.9694847423711854,-0.0006262133533755
2.973486743371686,-0.0004647879888566
2.977488744372186,-0.0003438672034471
2.981490745372686,-0.0002535887673
2.985492746373186,-0.0001864115266841
2.9894947473736866,-0.0001365900614091
2.993496748374187,-9.97629098609656e-05
2.997498749374687,-7.263114062729884e-05
3.0015007503751874,-5.270847385990516e-05
3.005502751375688,-3.8127813953666975e-05
3.0095047523761878,-2.7492062231781343e-05
3.013506753376688,-1.9759535704619043e-05
3.0175087543771886,-1.415631474475666e-05
3.0215107553776885,-1.0109456072050955e-05
3.025512756378189,-7.1963042864850845e-06
3.029514757378689,-5.106171984104736e-06
3.0335167583791893,-3.6114830988237967e-06
3.0375187593796897,-2.546126626036449e-06
3.0415207603801897,-1.7892816416239674e-06
3.04552276138069,-1.2533770519231897e-06
3.0495247623811905,-8.751633555825212e-07
3.0535267633816905,-6.091172362430894e-07
3.057528764382191,-4.225878971465076e-07
3.0615307653826913,-2.922386438652127e-07
3.0655327663831913,-2.0144786833466493e-07
3.0695347673836917,-1.3841787258681328e-07
3.0735367683841917,-9.480388669126413e-08
3.077538769384692,-6.472388972544838e-08
3.0815407703851925,-4.4046112602297844e-08
3.0855427713856924,-2.9878244867623726e-08
3.089544772386193,-2.0202592973077933e-08
3.0935467733866933,-1.3616443605401284e-08
3.0975487743871932,-9.14797197697547e-09
3.1015507753876936,-6.126190892809647e-09
3.105552776388194,-4.089411368638694e-09
3.109554777388694,-2.721044584420881e-09
3.1135567783891944,-1.8047419206628163e-09
3.117558779389695,-1.1931612832113707e-09
3.121560780390195,-7.86299144306584e-10
3.125562781390695,-5.165127706216701e-10
3.129564782391195,-3.3820415615422754e-10
3.1335667833916956,-2.2074020302592312e-10
3.137568784392196,-1.4361128248911558e-10
3.141570785392696,-9.313229678131479e-11
3.1455727863931964,-6.020280134096292e-11
3.149574787393697,-3.879160283135658e-11
3.1535767883941968,-2.4915143337869324e-11
3.157578789394697,-1.5951212461994078e-11
3.1615807903951976,-1.017955179301137e-11
3.1655827913956975,-6.475424780230124e-12
3.169584792396198,-4.1059392713463806e-12
3.173586793396698,-2.5951438441412174e-12
3.1775887943971983,-1.6349896395712648e-12
3.1815907953976987,-1.026770147984376e-12
3.1855927963981987,-6.427411754177372e-13
3.189594797398699,-4.0105475866288394e-13
3.1935967983991995,-2.49445623384396e-13
3.1975987993996995,-1.5465101269442774e-13
3.2016008004002,-9.557280100004566e-14
3.2056028014007003,-5.887359119297063e-14
3.2096048024012003,-3.615025874604462e-14
3.2136068034017007,-2.2126206538165852e-14
3.2176088044022007,-1.3499173665771914e-14
3.221610805402701,-8.209412504904478e-15
3.2256128064032015,-4.9764729167473266e-15
3.2296148074037014,-3.0070170059449136e-15
3.233616808404202,-1.8111515726561345e-15
3.2376188094047023,-1.0873725986649344e-15
3.2416208104052022,-6.50738717668799e-16
3.2456228114057026,-3.8818574672104653e-16
3.249624812406203,-2.3082199958141133e-16
3.253626813406703,-1.368105186387168e-16
3.2576288144072034,-8.082886053610219e-17
3.261630815407704,-4.7601221897287584e-17
3.265632816408204,-2.794308958363329e-17
3.269634817408704,-1.635066509562384e-17
3.273636818409204,-9.53676544746326e-18
3.2776388194097046,-5.544615802347436e-18
3.281640820410205,-3.2132646340039457e-18
3.285642821410705,-1.856206156994175e-18
3.2896448224112054,-1.0688348430001285e-18
3.293646823411706,-6.134789654274502e-19
3.2976488244122057,-3.5098893846942103e-19
3.301650825412706,-2.0016671544408872e-19
3.3056528264132066,-1.1378761010314327e-19
3.3096548274137065,-6.447669519653823e-20
3.313656828414207,-3.641792883122115e-20
3.317658829414707,-2.050370746247965e-20
3.3216608304152073,-1.1506791172382746e-20
3.3256628314157077,-6.4369590569798025e-21
3.3296648324162077,-3.589318048707611e-21
3.333666833416708,-1.9950225992501178e-21
3.3376688344172085,-1.105320888565466e-21
3.3416708354177085,-6.104268334795682e-22
3.345672836418209,-3.360342434423447e-22
3.3496748374187093,-1.8439032821289272e-22
3.3536768384192093,-1.0085499673950202e-22
3.3576788394197097,-5.498717185665148e-23
3.3616808404202096,-2.9883401388134083e-23
3.36568284142071,-1.6188378666674392e-23
3.3696848424212105,-8.741407419052516e-24
3.3736868434217104,-4.7050479254804696e-24
3.377688844422211,-2.5243607691079056e-24
3.3816908454227113,-1.350030171304728e-24
3.385692846423211,-7.196812835575466e-25
3.3896948474237116,-3.824209039901883e-25
3.393696848424212,-2.025572167133589e-25
3.397698849424712,-1.0694451114013414e-25
3.4017008504252124,-5.628257516362847e-26
3.405702851425713,-2.952528525131965e-26
3.409704852426213,-1.5438991424691386e-26
3.413706853426713,-8.047267381221953e-27
3.417708854427213,-4.1810235998341865e-27
3.4217108554277136,-2.1653170124487382e-27
3.425712856428214,-1.1178024032222199e-27
3.429714857428714,-5.7519257565827615e-28
3.4337168584292144,-2.950300047519247e-28
3.437718859429715,-1.5084252119957532e-28
3.4417208604302147,-7.68751649877727e-29
3.445722861430715,-3.9052875861420413e-29
3.4497248624312156,-1.9775372043877139e-29
3.4537268634317155,-9.981618951200801e-30
3.457728864432216,-5.022061101415247e-30
3.461730865432716,-2.5186491832128664e-30
3.4657328664332163,-1.2590936952880996e-30
3.4697348674337167,-6.274124041676309e-31
3.4737368684342167,-3.116397403480708e-31
3.477738869434717,-1.5429691715418864e-31
3.4817408704352175,-7.61493754936823e-32
3.4857428714357175,-3.7461065428462044e-32
3.489744872436218,-1.8369552890715314e-32
3.4937468734367183,-8.978870929058413e-33
3.4977488744372183,-4.374712865570151e-33
3.5017508754377187,-2.1246238874896284e-33
3.5057528764382186,-1.0285354114050559e-33
3.509754877438719,-4.963192491457144e-34
3.5137568784392195,-2.3873037023499173e-34
3.5177588794397194,-1.1446136110320302e-34
3.52176088044022,-5.470346326498788e-35
3.5257628814407203,-2.606006055750336e-35
3.52976488244122,-1.2374871581561549e-35
3.5337668834417206,-5.8574779576340244e-36
3.537768884442221,-2.7636644181981897e-36
3.541770885442721,-1.2997643865608556e-36
3.5457728864432214,-6.093245005510712e-37
3.549774887443722,-2.847326900255319e-37
3.553776888444222,-1.3262662041010894e-37
3.557778889444722,-6.157845055933686e-38
3.561780890445222,-2.8499122807977476e-38
3.5657828914457226,-1.3147370767355916e-38
3.569784892446223,-6.04576149579458e-39
3.573786893446723,-2.7711995004458377e-39
3.5777888944472234,-1.2661619427460516e-39
3.5817908954477238,-5.766541227594183e-40
3.5857928964482237,-2.6178588645820934e-40
3.589794897448724,-1.1846273044761427e-40
3.5937968984492246,-5.343452215151042e-41
3.5977988994497245,-2.4025188480745945e-41
3.601800900450225,-1.0767536655331026e-41
3.605802901450725,-4.810282652294231e-42
3.6098049024512253,-2.1420495642874574e-42
3.6138069034517257,-9.508086343974174e-43
3.6178089044522257,-4.206892361788303e-43
3.621810905452726,-1.855386385420442e-43
3.6258129064532265,-8.156653483159106e-44
3.6298149074537265,-3.574327494765051e-44
3.633816908454227,-1.5612820008485093e-44
3.6378189094547273,-6.797872990685325e-45
3.6418209104552273,-2.9503220233082865e-45
3.6458229114557277,-1.2763520439768843e-45
3.6498249124562276,-5.503972016775977e-46
3.653826913456728,-2.3658469068960788e-46
3.6578289144572285,-1.0136820147375381e-46
3.6618309154577284,-4.3293383251236067e-47
3.665832916458229,-1.843087666100326e-47
3.6698349174587293,-7.821231516940883e-48
3.673836918459229,-3.3083311374607515e-48
3.6778389194597296,-1.3949141674657928e-48
3.68184092046023,-5.8626056192566985e-49
3.68584292146073,-2.456057650143865e-49
3.6898449224612304,-1.0256309438578775e-49
3.6938469234617304,-4.269218236488393e-50
3.697848924462231,-1.7713740514640057e-50
3.701850925462731,-7.326168161536367e-51
3.705852926463231,-3.0202866954551725e-51
3.7098549274637316,-1.24114961828154e-51
3.713856928464232,-5.083991180670144e-52
3.717858929464732,-2.075822050359168e-52
3.7218609304652324,-8.448510249906889e-53
3.7258629314657328,-3.427479229589214e-53
3.7298649324662327,-1.386035040879732e-53
3.733866933466733,-5.586994840094728e-54
3.7378689344672336,-2.2448483748620048e-54
3.7418709354677335,-8.99084347092746e-55
3.745872936468234,-3.5893725973977655e-55
3.749874937468734,-1.4283720093170687e-55
3.7538769384692343,-5.665898643217654e-56
3.7578789394697347,-2.240273044023767e-56
3.7618809404702347,-8.829534083266386e-57
3.765882941470735,-3.4688003421327643e-57
3.7698849424712355,-1.3583932077579098e-57
3.7738869434717355,-5.302447549776248e-58
3.777888944472236,-2.063155410899753e-58
3.7818909454727363,-8.001882817236478e-59
3.7858929464732363,-3.0935498090678277e-59
3.7898949474737367,-1.1921385194406146e-59
3.7938969484742366,-4.579320187268828e-60
3.797898949474737,-1.7533958823528143e-60
3.8019009504752375,-6.692118707539566e-61
3.8059029514757374,-2.5459623193748363e-61
3.809904952476238,-9.654837962540709e-62
3.8139069534767382,-3.649578328150064e-62
3.817908954477238,-1.3751341600183208e-62
3.8219109554777386,-5.164783653505414e-63
3.825912956478239,-1.9335877219677253e-63
3.829914957478739,-7.215730546433781e-64
3.8339169584792394,-2.684116838971789e-64
3.8379189594797394,-9.952385918164355e-65
3.84192096048024,-3.678389222476245e-65
3.84592296148074,-1.3551670602768697e-65
3.84992496248124,-4.976599300139793e-66
3.8539269634817406,-1.821701405680908e-66
3.857928964482241,-6.64701095750537e-67
3.861930965482741,-2.417576792058237e-67
3.8659329664832414,-8.764736075746881e-68
3.8699349674837418,-3.1673940042784258e-68
3.8739369684842417,-1.1409589499575538e-68
3.877938969484742,-4.0967798854337076e-69
3.8819409704852426,-1.4662901716884082e-69
3.8859429714857425,-5.2312069170037634e-70
3.889944972486243,-1.860323857248923e-70
3.893946973486743,-6.594469964904918e-71
3.8979489744872433,-2.330107273265918e-71
3.9019509754877437,-8.206852318252175e-72
3.9059529764882437,-2.8812570358758365e-72
3.909954977488744,-1.008305346653549e-72
3.9139569784892445,-3.5172789984136333e-73
3.9179589794897445,-1.2229994160051522e-73
3.921960980490245,-4.238872584537074e-74
3.9259629814907453,-1.4644655407917384e-74
3.9299649824912453,-5.043274810908075e-75
3.9339669834917457,-1.731214147066138e-75
3.9379689844922456,-5.923707870267545e-76
3.941970985492746,-2.0204176583117402e-76
3.9459729864932465,-6.868997528202117e-77
3.9499749874937464,-2.3278245634548247e-77
3.953976988494247,-7.863426197758117e-78
3.9579789894947472,-2.6477566380341037e-78
3.961980990495247,-8.886873492862909e-79
3.9659829914957476,-2.9732033418869994e-79
3.969984992496248,-9.915278304929366e-80
3.973986993496748,-3.2960203690135698e-80
3.9779889944972484,-1.0921431022288888e-80
3.9819909954977484,-3.607230458919146e-81
3.985992996498249,-1.1876074508905438e-81
3.989994997498749,-3.897414708497421e-82
3.993996998499249,-1.2749260881383264e-82
3.9979989994997496,-4.157172809414137e-83
4.0020010005002495,-3.713142656031926e-05
4.00600300150075,-5.108328455940306e-05
4.01000500250125,-7.005178077480788e-05
4.01400700350175,-9.575525301137992e-05
4.018009004502251,-0.0001304694895328
4.022011005502751,-0.0001771977072911
4.026013006503251,-0.0002398887352447
4.030015007503752,-0.0003237159214487
4.034017008504252,-0.0004354321857003
4.038019009504752,-0.0005838201160078
4.042021010505253,-0.000780260142849
4.046023011505753,-0.0010394447113233
4.050025012506253,-0.0013802721025521
4.054027013506753,-0.0018269602274025
4.0580290145072535,-0.0024104284200035
4.0620310155077535,-0.0031700040796592
4.066033016508253,-0.0041555210171937
4.070035017508754,-0.0054298876026382
4.074037018509254,-0.0070722153007192
4.078039019509754,-0.0091816118907961
4.082041020510255,-0.0118817585144182
4.086043021510755,-0.0153264055210696
4.090045022511255,-0.019705938647956
4.094047023511756,-0.0252551840246066
4.098049024512256,-0.0322626373654083
4.102051025512756,-0.041081318887888
4.106053026513257,-0.0521414701951477
4.110055027513757,-0.0659653216324813
4.114057028514257,-0.0831841673232764
4.118059029514757,-0.1045579888573065
4.122061030515257,-0.1309978658874967
4.126063031515757,-0.1635914009269852
4.130065032516258,-0.203631364472865
4.134067033516758,-0.2526477330949183
4.138069034517258,-0.3124432450656124
4.142071035517759,-0.3851325331433551
4.146073036518259,-0.4731848099194863
4.150075037518759,-0.5794699754469804
4.154077038519259,-16.585641504446258
4.15807903951976,-43.37031383092813
4.16208104052026,-67.50303242955553
4.16608304152076,-87.47793029028568
4.1700850425212606,-102.0542933719804
4.1740870435217605,-110.33524206740316
4.1780890445222605,-111.8247650591791
4.182091045522761,-106.45950902302248
4.186093046523261,-94.61331954468052
4.190095047523761,-77.07424684020604
4.194097048524262,-54.99546599983874
4.198099049524762,-29.82320598054513
4.202101050525262,-3.206230700346248
4.206103051525763,23.10742208351761
4.210105052526263,47.379936226796026
4.214107053526763,67.99254761966495
4.218109054527264,83.54685415657275
4.222111055527764,92.952226403094
4.226113056528264,95.49381922151778
4.2301150575287645,90.87691078701536
4.2341170585292645,79.24479126517733
4.238119059529764,61.16909452165656
4.242121060530264,37.61320712368767
4.246123061530765,9.871089689188771
4.250125062531265,-20.51460101824468
4.254127063531765,-34.601793494160226
4.258129064532266,-38.61182160858503
4.262131065532766,-42.92106815062535
4.266133066533266,-47.524961367354166
4.270135067533767,-52.4135182488415
4.274137068534267,-57.57059832387432
4.278139069534767,-62.97315426951922
4.282141070535268,-68.59049458043258
4.286143071535768,-74.38357550531653
4.2901450725362675,-80.30434126099276
4.294147073536768,-86.2951331081726
4.298149074537268,-92.28818914353752
4.302151075537768,-98.20525755603448
4.306153076538269,-103.95734653882631
4.310155077538769,-109.44463397371318
4.314157078539269,-114.55655935033444
4.31815907953977,-119.17211909570987
4.32216108054027,-123.16038453031756
4.32616308154077,-126.3812590091345
4.330165082541271,-128.6864874410234
4.334167083541771,-129.9209273176758
4.338169084542271,-129.92408565487975
4.342171085542771,-128.5319209069667
4.3461730865432715,-125.5789030352726
4.3501750875437715,-120.9003185913202
4.354177088544271,-114.33480103508091
4.358179089544772,-105.72705968850576
4.362181090545272,-94.93077388318312
4.366183091545772,-81.81161217248642
4.370185092546273,-66.25033012846093
4.374187093546773,-48.14589442473404
4.378189094547273,-27.41857581376229
4.382191095547774,-4.012949431246484
4.386193096548274,22.09926221532046
4.390195097548774,50.91657002654986
4.394197098549275,82.4053897101878
4.398199099549775,116.49806951919886
4.402201100550275,153.09133730478894
4.406203101550775,192.0452254569153
4.410205102551275,233.1825262384004
4.414207103551775,276.2888223310348
4.418209104552276,321.1131281922596
4.422211105552776,367.36916720639925
4.426213106553276,414.73729778934063
4.430215107553777,462.8670887988933
4.434217108554277,511.380531084263
4.438219109554777,559.8758580812748
4.442221110555277,607.9319343571174
4.446223111555778,655.113157280471
4.450225112556278,700.9748039008272
4.454227113556778,745.068743024577
4.4582291145572785,786.9494217237292
4.4622311155577785,826.1800264318815
4.4662331165582785,862.3387116640383
4.470235117558779,895.02478449133
4.474237118559279,923.8647304053796
4.478239119559779,948.5179662564158
4.48224112056028,968.6822086144743
4.48624312156078,984.0983511840049
4.49024512256128,994.5547527266666
4.494247123561781,999.8908471711804
4.498249124562281,1000.0
4.502251125562781,994.8315493239782
4.506253126563282,984.391985955201
4.510255127563782,968.7452438849176
4.514257128564282,948.0120904516756
4.5182591295647825,922.3686237040048
4.5222611305652824,892.0439025706453
4.526263131565782,857.3167529999067
4.530265132566282,818.5118097842313
4.534267133566783,775.9948689404815
4.538269134567283,730.1676389049252
4.542271135567783,681.461990108653
4.546273136568284,630.3338114674854
4.550275137568784,577.2565887593539
4.554277138569284,522.7148236507746
4.558279139569785,467.1974132240452
4.562281140570285,411.1911082722564
4.566283141570785,355.1741644642755
4.570285142571286,299.6102938965132
4.574287143571786,244.94301576203932
4.5782891445722855,191.5904941514493
4.582291145572786,139.94093866754193
4.586293146573286,90.34862993302052
4.590295147573786,43.13061756462197
4.594297148574287,-1.4358768437528098
4.598299149574787,-43.11533436447059
4.602301150575287,-81.71508860012744
4.606303151575788,-117.0857627540564
4.610305152576288,-149.12101940138686
4.614307153576788,-177.75666079737448
4.618309154577289,-202.96912849830272
4.622311155577789,-224.7734604128894
4.626313156578289,-243.2207710068076
4.630315157578789,-258.39532615902453
4.6343171585792895,-270.411288076637
4.6383191595797895,-279.4092077247745
4.642321160580289,-285.5523424766338
4.64632316158079,-289.0228752350329
4.65032516258129,-290.01810825777426
4.65432716358179,-445.7794269139951
4.658329164582291,-470.1361329698096
4.662331165582791,-485.1913776366292
4.666333166583291,-490.3492778474259
4.670335167583792,-485.347155625427
4.674337168584292,-470.2722990479529
4.678339169584792,-445.5646826374064
4.682341170585293,-412.0054554518736
4.686343171585793,-370.6915862197216
4.690345172586293,-322.9976209990619
4.694347173586793,-270.5260369829375
4.698349174587293,-215.04814468807072
4.702351175587793,-158.43788074140528
4.706353176588294,-102.60112888239384
4.710355177588794,-49.4033955308938
4.714357178589294,-0.5987405565466584
4.718359179589794,42.2371794066871
4.722361180590295,77.76725698956967
4.726363181590795,104.94384017805864
4.730365182591295,123.04833681554828
4.734367183591796,131.71790749598833
4.738369184592296,130.95815423002009
4.742371185592796,121.14127454411882
4.7463731865932965,102.9897350945174
4.7503751875937965,77.54610180167217
4.7543771885942965,46.13022134222932
4.758379189594797,10.285458981572708
4.762381190595297,-28.283860482869983
4.766383191595797,-67.7813063868981
4.770385192596298,-106.3907333933176
4.774387193596798,-142.34930941151384
4.778389194597298,-174.01825266984278
4.782391195597799,-199.9484416963484
4.786393196598299,-218.9382677593043
4.790395197598799,-230.0814113196325
4.7943971985993,-232.8026296902733
4.7983991995998,-226.88012602920247
4.8024012006003,-212.45361052794084
4.8064032016008005,-190.0177413673966
4.8104052026013004,-160.40122240800665
4.8144072036018,-124.7324128525426
4.8184092046023,-84.3928479026701
4.822411205602801,-40.960556748623794
4.826413206603301,3.854524612157103
4.830415207603801,48.280429858725846
4.834417208604302,90.55549954804252
4.838419209604802,129.000251994262
4.842421210605302,162.08588057681757
4.846423211605803,188.4966074702775
4.850425212606303,207.1833729389207
4.854427213606803,-0.8763309555718142
4.858429214607304,-0.7142210051978555
4.862431215607804,-0.5802129110343672
4.8664332166083035,-0.4698222502953448
4.870435217608804,-0.3792034019983585
4.874437218609304,-0.3050733498532045
4.878439219609804,-0.2446417606525403
4.882441220610305,-0.1955473793907694
4.886443221610805,-0.1558006389335277
4.890445222611305,-0.1237322704466616
4.894447223611806,-0.0979476173844247
4.898449224612306,-0.0772862969738484
4.902451225612806,-0.0607868152133472
4.906453226613307,-0.0476557209819095
4.910455227613807,-0.0372408787138904
4.914457228614307,-0.0290084442976926
4.918459229614807,-0.0225231427805954
4.9224612306153075,-0.0174314668085811
4.9264632316158075,-0.01344743952676
4.930465232616307,-0.0103406132553118
4.934467233616808,-0.00792600427577
4.938469234617308,-0.0060556934220437
4.942471235617808,-0.0046118510216664
4.946473236618309,-0.0035009724401615
4.950475237618809,-0.0026491365927768
4.954477238619309,-0.0019981240044376
4.95847923961981,-0.0015022531481446
4.96248124062031,-0.0011258138028347
4.96648324162081,-0.0008409940512819
4.970485242621311,-0.0006262133533755
4.974487243621811,-0.0004647879888566
4.978489244622311,-0.0003438672034471
4.982491245622811,-0.0002535887673
4.986493246623311,-0.0001864115266841
4.990495247623811,-0.0001365900614091
4.994497248624312,-9.97629098609656e-05
4.998499249624812,-7.263114062729884e-05
5.002501250625312,-5.270847385990516e-05
5.006503251625812,-3.8127813953666975e-05
5.010505252626313,-2.7492062231781343e-05
5.014507253626813,-1.9759535704619043e-05
5.018509254627313,-1.415631474475666e-05
5.022511255627814,-1.0109456072050955e-05
5.026513256628314,-7.1963042864850845e-06
5.030515257628814,-5.106171984104736e-06
5.0345172586293145,-3.6114830988237967e-06
5.0385192596298145,-2.546126626036449e-06
5.0425212606303145,-1.7892816416239674e-06
5.046523261630815,-1.2533770519231897e-06
5.050525262631315,-8.751633555825212e-07
5.054527263631815,-6.091172362430894e-07
5.058529264632316,-4.225878971465076e-07
5.062531265632816,-2.922386438652127e-07
5.066533266633316,-2.0144786833466493e-07
5.070535267633817,-1.3841787258681328e-07
5.074537268634317,-9.480388669126413e-08
5.078539269634817,-6.472388972544838e-08
5.082541270635318,-4.4046112602297844e-08
5.086543271635818,-2.9878244867623726e-08
5.090545272636318,-2.0202592973077933e-08
5.0945472736368185,-1.3616443605401284e-08
5.098549274637318,-9.14797197697547e-09
5.102551275637818,-6.126190892809647e-09
5.106553276638318,-4.089411368638694e-09
5.110555277638819,-2.721044584420881e-09
5.114557278639319,-1.8047419206628163e-09
5.118559279639819,-1.1931612832113707e-09
5.12256128064032,-7.86299144306584e-10
5.12656328164082,-5.165127706216701e-10
5.13056528264132,-3.3820415615422754e-10
5.134567283641821,-2.2074020302592312e-10
5.138569284642321,-1.4361128248911558e-10
5.142571285642821,-9.313229678131479e-11
5.146573286643322,-6.020280134096292e-11
5.1505752876438216,-3.879160283135658e-11
5.1545772886443215,-2.4915143337869324e-11
5.158579289644822,-1.5951212461994078e-11
5.162581290645322,-1.017955179301137e-11
5.166583291645822,-6.475424780230124e-12
5.170585292646323,-4.1059392713463806e-12
5.174587293646823,-2.5951438441412174e-12
5.178589294647323,-1.6349896395712648e-12
5.182591295647824,-1.026770147984376e-12
5.186593296648324,-6.427411754177372e-13
5.190595297648824,-4.0105475866288394e-13
5.194597298649324,-2.49445623384396e-13
5.198599299649825,-1.5465101269442774e-13
5.202601300650325,-9.557280100004566e-14
5.206603301650825,-5.887359119297063e-14
5.2106053026513255,-3.615025874604462e-14
5.2146073036518255,-2.2126206538165852e-14
5.218609304652325,-1.3499173665771914e-14
5.222611305652826,-8.209412504904478e-15
5.226613306653326,-4.9764729167473266e-15
5.230615307653826,-3.0070170059449136e-15
5.234617308654327,-1.8111515726561345e-15
5.238619309654827,-1.0873725986649344e-15
5.242621310655327,-6.50738717668799e-16
5.246623311655828,-3.8818574672104653e-16
5.250625312656328,-2.3082199958141133e-16
5.254627313656828,-1.368105186387168e-16
5.258629314657329,-8.082886053610219e-17
5.262631315657829,-4.7601221897287584e-17
5.266633316658329,-2.794308958363329e-17
5.270635317658829,-1.635066509562384e-17
5.274637318659329,-9.53676544746326e-18
5.278639319659829,-5.544615802347436e-18
5.28264132066033,-3.2132646340039457e-18
5.28664332166083,-1.856206156994175e-18
5.29064532266133,-1.0688348430001285e-18
5.29464732366183,-6.134789654274502e-19
5.298649324662331,-3.5098893846942103e-19
5.302651325662831,-2.0016671544408872e-19
5.306653326663331,-1.1378761010314327e-19
5.310655327663832,-6.447669519653823e-20
5.314657328664332,-3.641792883122115e-20
5.318659329664832,-2.050370746247965e-20
5.3226613306653325,-1.1506791172382746e-20
5.3266633316658325,-6.4369590569798025e-21
5.3306653326663325,-3.589318048707611e-21
5.334667333666833,-1.9950225992501178e-21
5.338669334667333,-1.105320888565466e-21
5.342671335667833,-6.104268334795682e-22
5.346673336668334,-3.360342434423447e-22
5.350675337668834,-1.8439032821289272e-22
5.354677338669334,-1.0085499673950202e-22
5.358679339669835,-5.498717185665148e-23
5.362681340670335,-2.9883401388134083e-23
5.366683341670835,-1.6188378666674392e-23
5.370685342671336,-8.741407419052516e-24
5.374687343671836,-4.7050479254804696e-24
5.378689344672336,-2.5243607691079056e-24
5.3826913456728365,-1.350030171304728e-24
5.386693346673336,-7.196812835575466e-25
5.390695347673836,-3.824209039901883e-25
5.394697348674336,-2.025572167133589e-25
5.398699349674837,-1.0694451114013414e-25
5.402701350675337,-5.628257516362847e-26
5.406703351675837,-2.952528525131965e-26
5.410705352676338,-1.5438991424691386e-26
5.414707353676838,-8.047267381221953e-27
5.418709354677338,-4.1810235998341865e-27
5.422711355677839,-2.1653170124487382e-27
5.426713356678339,-1.1178024032222199e-27
5.430715357678839,-5.7519257565827615e-28
5.43471735867934,-2.950300047519247e-28
5.4387193596798395,-1.5084252119957532e-28
5.4427213606803395,-7.68751649877727e-29
5.44672336168084,-3.9052875861420413e-29
5.45072536268134,-1.9775372043877139e-29
5.45472736368184,-9.981618951200801e-30
5.458729364682341,-5.022061101415247e-30
5.462731365682841,-2.5186491832128664e-30
5.466733366683341,-1.2590936952880996e-30
5.470735367683842,-6.274124041676309e-31
5.474737368684342,-3.116397403480708e-31
5.478739369684842,-1.5429691715418864e-31
5.482741370685342,-7.61493754936823e-32
5.486743371685843,-3.7461065428462044e-32
5.490745372686343,-1.8369552890715314e-32
5.494747373686843,-8.978870929058413e-33
5.4987493746873435,-4.374712865570151e-33
5.5027513756878434,-2.1246238874896284e-33
5.506753376688343,-1.0285354114050559e-33
5.510755377688844,-4.963192491457144e-34
5.514757378689344,-2.3873037023499173e-34
5.518759379689844,-1.1446136110320302e-34
5.522761380690345,-5.470346326498788e-35
5.526763381690845,-2.606006055750336e-35
5.530765382691345,-1.2374871581561549e-35
5.534767383691846,-5.8574779576340244e-36
5.538769384692346,-2.7636644181981897e-36
5.542771385692846,-1.2997643865608556e-36
5.546773386693347,-6.093245005510712e-37
5.550775387693847,-2.847326900255319e-37
5.554777388694347,-1.3262662041010894e-37
5.558779389694847,-6.157845055933686e-38
5.562781390695347,-2.8499122807977476e-38
5.566783391695847,-1.3147370767355916e-38
5.570785392696348,-6.04576149579458e-39
5.574787393696848,-2.7711995004458377e-39
5.578789394697348,-1.2661619427460516e-39
5.582791395697848,-5.766541227594183e-40
5.586793396698349,-2.6178588645820934e-40
5.590795397698849,-1.1846273044761427e-40
5.594797398699349,-5.343452215151042e-41
5.59879939969985,-2.4025188480745945e-41
5.60280140070035,-1.0767536655331026e-41
5.60680340170085,-4.810282652294231e-42
5.6108054027013505,-2.1420495642874574e-42
5.6148074037018505,-9.508086343974174e-43
5.6188094047023505,-4.206892361788303e-43
5.622811405702851,-1.855386385420442e-43
5.626813406703351,-8.156653483159106e-44
5.630815407703851,-3.574327494765051e-44
5.634817408704352,-1.5612820008485093e-44
5.638819409704852,-6.797872990685325e-45
5.642821410705352,-2.9503220233082865e-45
5.646823411705853,-1.2763520439768843e-45
5.650825412706353,-5.503972016775977e-46
5.654827413706853,-2.3658469068960788e-46
5.658829414707354,-1.0136820147375381e-46
5.662831415707854,-4.3293383251236067e-47
5.666833416708354,-1.843087666100326e-47
5.670835417708854,-7.821231516940883e-48
5.674837418709354,-3.3083311374607515e-48
5.678839419709854,-1.3949141674657928e-48
5.682841420710354,-5.8626056192566985e-49
5.686843421710855,-2.456057650143865e-49
5.690845422711355,-1.0256309438578775e-49
5.694847423711855,-4.269218236488393e-50
5.698849424712356,-1.7713740514640057e-50
5.702851425712856,-7.326168161536367e-51
5.706853426713356,-3.0202866954551725e-51
5.710855427713857,-1.24114961828154e-51
5.714857428714357,-5.083991180670144e-52
5.718859429714857,-2.075822050359168e-52
5.722861430715358,-8.448510249906889e-53
5.7268634317158575,-3.427479229589214e-53
5.7308654327163575,-1.386035040879732e-53
5.734867433716858,-5.586994840094728e-54
5.738869434717358,-2.2448483748620048e-54
5.742871435717858,-8.99084347092746e-55
5.746873436718359,-3.5893725973977655e-55
5.750875437718859,-1.4283720093170687e-55
5.754877438719359,-5.665898643217654e-56
5.75887943971986,-2.240273044023767e-56
5.76288144072036,-8.829534083266386e-57
5.76688344172086,-3.4688003421327643e-57
5.77088544272136,-1.3583932077579098e-57
5.774887443721861,-5.302447549776248e-58
5.778889444722361,-2.063155410899753e-58
5.782891445722861,-8.001882817236478e-59
5.7868934467233615,-3.0935498090678277e-59
5.7908954477238614,-1.1921385194406146e-59
5.794897448724361,-4.579320187268828e-60
5.798899449724862,-1.7533958823528143e-60
5.802901450725362,-6.692118707539566e-61
5.806903451725862,-2.5459623193748363e-61
5.810905452726363,-9.654837962540709e-62
5.814907453726863,-3.649578328150064e-62
5.818909454727363,-1.3751341600183208e-62
5.822911455727864,-5.164783653505414e-63
5.826913456728364,-1.9335877219677253e-63
5.830915457728864,-7.215730546433781e-64
5.834917458729365,-2.684116838971789e-64
5.838919459729865,-9.952385918164355e-65
5.842921460730365,-3.678389222476245e-65
5.846923461730865,-1.3551670602768697e-65
5.850925462731365,-4.976599300139793e-66
5.854927463731865,-1.821701405680908e-66
5.858929464732366,-6.64701095750537e-67
5.862931465732866,-2.417576792058237e-67
5.866933466733366,-8.764736075746881e-68
5.870935467733866,-3.1673940042784258e-68
5.874937468734367,-1.1409589499575538e-68
5.878939469734867,-4.0967798854337076e-69
5.882941470735367,-1.4662901716884082e-69
5.886943471735868,-5.2312069170037634e-70
5.890945472736368,-1.860323857248923e-70
5.894947473736868,-6.594469964904918e-71
5.8989494747373685,-2.330107273265918e-71
5.9029514757378685,-8.206852318252175e-72
5.9069534767383685,-2.8812570358758365e-72
5.910955477738869,-1.008305346653549e-72
5.914957478739369,-3.5172789984136333e-73
5.918959479739869,-1.2229994160051522e-73
5.92296148074037,-4.238872584537074e-74
5.92696348174087,-1.4644655407917384e-74
5.93096548274137,-5.043274810908075e-75
5.934967483741871,-1.731214147066138e-75
5.938969484742371,-5.923707870267545e-76
5.942971485742871,-2.0204176583117402e-76
5.946973486743372,-6.868997528202117e-77
5.950975487743872,-2.3278245634548247e-77
5.954977488744372,-7.863426197758117e-78
5.958979489744872,-2.6477566380341037e-78
5.962981490745372,-8.886873492862909e-79
5.966983491745872,-2.9732033418869994e-79
5.970985492746372,-9.915278304929366e-80
5.974987493746873,-3.2960203690135698e-80
5.978989494747373,-1.0921431022288888e-80
5.982991495747873,-3.607230458919146e-81
5.986993496748374,-1.1876074508905438e-81
5.990995497748874,-3.897414708497421e-82
5.994997498749374,-1.2749260881383264e-82
5.998999499749875,-4.157172809414137e-83
6.003001500750375,-3.713142656031926e-05
6.007003501750875,-5.108328455940306e-05
6.011005502751376,-7.005178077480788e-05
6.0150075037518755,-9.575525301137992e-05
6.0190095047523755,-0.0001304694895328
6.023011505752876,-0.0001771977072911
6.027013506753376,-0.0002398887352447
6.031015507753876,-0.0003237159214487
6.035017508754377,-0.0004354321857003
6.039019509754877,-0.0005838201160078
6.043021510755377,-0.000780260142849
6.047023511755878,-0.0010394447113233
6.051025512756378,-0.0013802721025521
6.055027513756878,-0.0018269602274025
6.059029514757378,-0.0024104284200035
6.063031515757879,-0.0031700040796592
6.067033516758379,-0.0041555210171937
6.071035517758879,-0.0054298876026382
6.0750375187593795,-0.0070722153007192
6.079039519759879,-0.0091816118907961
6.083041520760379,-0.0118817585144182
6.08704352176088,-0.0153264055210696
6.09104552276138,-0.019705938647956
6.09504752376188,-0.0252551840246066
6.099049524762381,-0.0322626373654083
6.103051525762881,-0.041081318887888
6.107053526763381,-0.0521414701951477
6.111055527763882,-0.0659653216324813
6.115057528764382,-0.0831841673232764
6.119059529764882,-0.1045579888573065
6.123061530765383,-0.1309978658874967
6.127063531765883,-0.1635914009269852
6.1310655327663826,-0.203631364472865
6.135067533766883,-0.2526477330949183
6.139069534767383,-0.3124432450656124
6.143071535767883,-0.3851325331433551
6.147073536768383,-0.4731848099194863
6.151075537768884,-0.5794699754469804
6.155077538769384,-16.585641504446258
6.159079539769884,-43.37031383092813
6.163081540770385,-67.50303242955553
6.167083541770885,-87.47793029028568
6.171085542771385,-102.0542933719804
6.175087543771886,-110.33524206740316
6.179089544772386,-111.8247650591791
6.183091545772886,-106.45950902302248
6.1870935467733865,-94.61331954468052
6.1910955477738865,-77.07424684020604
6.1950975487743865,-54.99546599983874
6.199099549774887,-29.82320598054513
6.203101550775387,-3.206230700346248
6.207103551775887,23.10742208351761
6.211105552776388,47.379936226796026
6.215107553776888,67.99254761966495
6.219109554777388,83.54685415657275
6.223111555777889,92.952226403094
6.227113556778389,95.49381922151778
6.231115557778889,90.87691078701536
6.23511755877939,79.24479126517733
6.23911955977989,61.16909452165656
6.24312156078039,37.61320712368767
6.24712356178089,9.871089689188771
6.25112556278139,-20.51460101824468
6.25512756378189,-34.601793494160226
6.25912956478239,-38.61182160858503
6.263131565782891,-42.92106815062535
6.267133566783391,-47.524961367354166
6.271135567783891,-52.4135182488415
6.275137568784392,-57.57059832387432
6.279139569784892,-62.97315426951922
6.283141570785392,-68.59049458043258
6.287143571785893,-74.38357550531653
6.291145572786393,-80.30434126099276
6.295147573786893,-86.2951331081726
6.299149574787394,-92.28818914353752
6.3031515757878935,-98.20525755603448
6.3071535767883935,-103.95734653882631
6.311155577788894,-109.44463397371318
6.315157578789394,-114.55655935033444
6.319159579789894,-119.17211909570987
6.323161580790395,-123.16038453031756
6.327163581790895,-126.3812590091345
6.331165582791395,-128.6864874410234
6.335167583791896,-129.9209273176758
6.339169584792396,-129.92408565487975
6.343171585792896,-128.5319209069667
6.347173586793396,-125.5789030352726
6.351175587793897,-120.9003185913202
6.355177588794397,-114.33480103508091
6.359179589794897,-105.72705968850576
6.3631815907953975,-94.93077388318312
6.367183591795897,-81.81161217248642
6.371185592796397,-66.25033012846093
6.375187593796898,-48.14589442473404
6.379189594797398,-27.41857581376229
6.383191595797898,-4.012949431246484
6.387193596798399,22.09926221532046
6.391195597798899,50.91657002654986
6.395197598799399,82.4053897101878
6.3991995997999,116.49806951919886
6.4032016008004,153.09133730478894
6.4072036018009,192.0452254569153
6.411205602801401,233.1825262384004
6.415207603801901,276.2888223310348
6.4192096048024005,321.1131281922596
6.423211605802901,367.36916720639925
6.427213606803401,414.73729778934063
6.431215607803901,462.8670887988933
6.435217608804401,511.380531084263
6.439219609804902,559.8758580812748
6.443221610805402,607.9319343571174
6.447223611805902,655.113157280471
6.451225612806403,700.9748039008272
6.455227613806903,745.068743024577
6.459229614807403,786.9494217237292
6.463231615807904,826.1800264318815
6.467233616808404,862.3387116640383
6.471235617808904,895.02478449133
6.4752376188094045,923.8647304053796
6.4792396198099045,948.5179662564158
6.4832416208104044,968.6822086144743
6.487243621810905,984.0983511840049
6.491245622811405,994.5547527266666
6.495247623811905,999.8908471711804
6.499249624812406,1000.0
6.503251625812906,994.8315493239782
6.507253626813406,984.391985955201
6.511255627813907,968.7452438849176
6.515257628814407,948.0120904516756
6.519259629814907,922.3686237040048
6.523261630815408,892.0439025706453
6.527263631815908,857.3167529999067
6.531265632816408,818.5118097842313
6.535267633816908,775.9948689404815
6.539269634817408,730.1676389049252
6.543271635817908,681.461990108653
6.547273636818408,630.3338114674854
6.551275637818909,577.2565887593539
6.555277638819409,522.7148236507746
6.559279639819909,467.1974132240452
6.56328164082041,411.1911082722564
6.56728364182091,355.1741644642755
6.57128564282141,299.6102938965132
6.575287643821911,244.94301576203932
6.579289644822411,191.5904941514493
6.583291645822911,139.94093866754193
6.587293646823412,90.34862993302052
6.5912956478239115,43.13061756462197
6.5952976488244115,-1.4358768437528098
6.599299649824912,-43.11533436447059
6.603301650825412,-81.71508860012744
6.607303651825912,-117.0857627540564
6.611305652826413,-149.12101940138686
6.615307653826913,-177.75666079737448
6.619309654827413,-202.96912849830272
6.623311655827914,-224.7734604128894
6.627313656828414,-243.2207710068076
6.631315657828914,-258.39532615902453
6.635317658829414,-270.411288076637
6.639319659829915,-279.4092077247745
6.643321660830415,-285.5523424766338
6.647323661830915,-289.0228752350329
6.6513256628314155,-290.01810825777426
6.655327663831915,-445.7794269139951
6.659329664832415,-470.1361329698096
6.663331665832916,-485.1913776366292
6.667333666833416,-490.3492778474259
6.671335667833916,-485.347155625427
6.675337668834417,-470.2722990479529
6.679339669834917,-445.5646826374064
6.683341670835417,-412.0054554518736
6.687343671835918,-370.6915862197216
6.691345672836418,-322.9976209990619
6.695347673836918,-270.5260369829375
6.699349674837419,-215.04814468807072
6.703351675837919,-158.43788074140528
6.7073536768384185,-102.60112888239384
6.711355677838919,-49.4033955308938
6.715357678839419,-0.5987405565466584
6.719359679839919,42.2371794066871
6.723361680840419,77.76725698956967
6.72736368184092,104.94384017805864
6.73136568284142,123.04833681554828
6.73536768384192,131.71790749598833
6.739369684842421,130.95815423002009
6.743371685842921,121.14127454411882
6.747373686843421,102.9897350945174
6.751375687843922,77.54610180167217
6.755377688844422,46.13022134222932
6.759379689844922,10.285458981572708
6.7633816908454225,-28.283860482869983
6.7673836918459225,-67.7813063868981
6.771385692846422,-106.3907333933176
6.775387693846923,-142.34930941151384
6.779389694847423,-174.01825266984278
6.783391695847923,-199.9484416963484
6.787393696848424,-218.9382677593043
6.791395697848924,-230.0814113196325
6.795397698849424,-232.8026296902733
6.799399699849925,-226.88012602920247
6.803401700850425,-212.45361052794084
6.807403701850925,-190.0177413673966
6.811405702851426,-160.40122240800665
6.815407703851926,-124.7324128525426
6.819409704852426,-84.3928479026701
6.823411705852926,-40.960556748623794
6.827413706853426,3.854524612157103
6.831415707853926,48.280429858725846
6.835417708854426,90.55549954804252
6.839419709854927,129.000251994262
6.843421710855427,162.08588057681757
6.847423711855927,188.4966074702775
6.851425712856428,207.1833729389207
6.855427713856928,-0.8763309555718142
6.859429714857428,-0.7142210051978555
6.863431715857929,-0.5802129110343672
6.867433716858429,-0.4698222502953448
6.871435717858929,-0.3792034019983585
6.87543771885943,-0.3050733498532045
6.8794397198599295,-0.2446417606525403
6.8834417208604295,-0.1955473793907694
6.88744372186093,-0.1558006389335277
6.89144572286143,-0.1237322704466616
6.89544772386193,-0.0979476173844247
6.899449724862431,-0.0772862969738484
6.903451725862931,-0.0607868152133472
6.907453726863431,-0.0476557209819095
6.911455727863931,-0.0372408787138904
6.915457728864432,-0.0290084442976926
6.919459729864932,-0.0225231427805954
6.923461730865432,-0.0174314668085811
6.927463731865933,-0.01344743952676
6.931465732866433,-0.0103406132553118
6.935467733866933,-0.00792600427577
6.9394697348674335,-0.0060556934220437
6.943471735867933,-0.0046118510216664
6.947473736868433,-0.0035009724401615
6.951475737868934,-0.0026491365927768
6.955477738869434,-0.0019981240044376
6.959479739869934,-0.0015022531481446
6.963481740870435,-0.0011258138028347
6.967483741870935,-0.0008409940512819
6.971485742871435,-0.0006262133533755
6.975487743871936,-0.0004647879888566
6.979489744872436,-0.0003438672034471
6.983491745872936,-0.0002535887673
6.987493746873437,-0.0001864115266841
6.991495747873937,-0.0001365900614091
6.9954977488744365,-9.97629098609656e-05
6.999499749874937,-7.263114062729884e-05
7.003501750875437,-5.270847385990516e-05
7.007503751875937,-3.8127813953666975e-05
7.011505752876437,-2.7492062231781343e-05
7.015507753876938,-1.9759535704619043e-05
7.019509754877438,-1.415631474475666e-05
7.023511755877938,-1.0109456072050955e-05
7.027513756878439,-7.1963042864850845e-06
7.031515757878939,-5.106171984104736e-06
7.035517758879439,-3.6114830988237967e-06
7.03951975987994,-2.546126626036449e-06
7.04352176088044,-1.7892816416239674e-06
7.04752376188094,-1.2533770519231897e-06
7.0515257628814405,-8.751633555825212e-07
7.0555277638819405,-6.091172362430894e-07
7.05952976488244,-4.225878971465076e-07
7.063531765882941,-2.922386438652127e-07
7.067533766883441,-2.0144786833466493e-07
7.071535767883941,-1.3841787258681328e-07
7.075537768884442,-9.480388669126413e-08
7.079539769884942,-6.472388972544838e-08
7.083541770885442,-4.4046112602297844e-08
7.087543771885943,-2.9878244867623726e-08
7.091545772886443,-2.0202592973077933e-08
7.095547773886943,-1.3616443605401284e-08
7.099549774887444,-9.14797197697547e-09
7.103551775887944,-6.126190892809647e-09
7.107553776888444,-4.089411368638694e-09
7.1115557778889436,-2.721044584420881e-09
7.115557778889444,-1.8047419206628163e-09
7.119559779889944,-1.1931612832113707e-09
7.123561780890444,-7.86299144306584e-10
7.127563781890945,-5.165127706216701e-10
7.131565782891445,-3.3820415615422754e-10
7.135567783891945,-2.2074020302592312e-10
7.139569784892446,-1.4361128248911558e-10
7.143571785892946,-9.313229678131479e-11
7.147573786893446,-6.020280134096292e-11
7.151575787893947,-3.879160283135658e-11
7.155577788894447,-2.4915143337869324e-11
7.159579789894947,-1.5951212461994078e-11
7.1635817908954476,-1.017955179301137e-11
7.1675837918959475,-6.475424780230124e-12
7.1715857928964475,-4.1059392713463806e-12
7.175587793896948,-2.5951438441412174e-12
7.179589794897448,-1.6349896395712648e-12
7.183591795897948,-1.026770147984376e-12
7.187593796898449,-6.427411754177372e-13
7.191595797898949,-4.0105475866288394e-13
7.195597798899449,-2.49445623384396e-13
7.199599799899949,-1.5465101269442774e-13
7.20360180090045,-9.557280100004566e-14
7.20760380190095,-5.887359119297063e-14
7.21160580290145,-3.615025874604462e-14
7.215607803901951,-2.2126206538165852e-14
7.219609804902451,-1.3499173665771914e-14
7.223611805902951,-8.209412504904478e-15
7.2276138069034515,-4.9764729167473266e-15
7.231615807903951,-3.0070170059449136e-15
7.235617808904451,-1.8111515726561345e-15
7.239619809904952,-1.0873725986649344e-15
7.243621810905452,-6.50738717668799e-16
7.247623811905952,-3.8818574672104653e-16
7.251625812906453,-2.3082199958141133e-16
7.255627813906953,-1.368105186387168e-16
7.259629814907453,-8.082886053610219e-17
7.263631815907954,-4.7601221897287584e-17
7.267633816908454,-2.794308958363329e-17
7.271635817908954,-1.635066509562384e-17
7.275637818909455,-9.53676544746326e-18
7.279639819909955,-5.544615802347436e-18
7.2836418209104545,-3.2132646340039457e-18
7.287643821910955,-1.856206156994175e-18
7.291645822911455,-1.0688348430001285e-18
7.295647823911955,-6.134789654274502e-19
7.299649824912455,-3.5098893846942103e-19
7.303651825912956,-2.0016671544408872e-19
7.307653826913456,-1.1378761010314327e-19
7.311655827913956,-6.447669519653823e-20
7.315657828914457,-3.641792883122115e-20
7.319659829914957,-2.050370746247965e-20
7.323661830915457,-1.1506791172382746e-20
7.327663831915958,-6.4369590569798025e-21
7.331665832916458,-3.589318048707611e-21
7.335667833916958,-1.9950225992501178e-21
7.3396698349174585,-1.105320888565466e-21
7.3436718359179585,-6.104268334795682e-22
7.347673836918458,-3.360342434423447e-22
7.351675837918959,-1.8439032821289272e-22
7.355677838919459,-1.0085499673950202e-22
7.359679839919959,-5.498717185665148e-23
7.36368184092046,-2.9883401388134083e-23
7.36768384192096,-1.6188378666674392e-23
7.37168584292146,-8.741407419052516e-24
7.375687843921961,-4.7050479254804696e-24
7.379689844922461,-2.5243607691079056e-24
7.383691845922961,-1.350030171304728e-24
7.387693846923461,-7.196812835575466e-25
7.391695847923962,-3.824209039901883e-25
7.395697848924462,-2.025572167133589e-25
7.3996998499249615,-1.0694451114013414e-25
7.403701850925462,-5.628257516362847e-26
7.407703851925962,-2.952528525131965e-26
7.411705852926462,-1.5438991424691386e-26
7.415707853926963,-8.047267381221953e-27
7.419709854927463,-4.1810235998341865e-27
7.423711855927963,-2.1653170124487382e-27
7.427713856928464,-1.1178024032222199e-27
7.431715857928964,-5.7519257565827615e-28
7.435717858929464,-2.950300047519247e-28
7.439719859929965,-1.5084252119957532e-28
7.443721860930465,-7.68751649877727e-29
7.447723861930965,-3.9052875861420413e-29
7.4517258629314655,-1.9775372043877139e-29
7.4557278639319655,-9.981618951200801e-30
7.4597298649324655,-5.022061101415247e-30
7.463731865932966,-2.5186491832128664e-30
7.467733866933466,-1.2590936952880996e-30
7.471735867933966,-6.274124041676309e-31
7.475737868934467,-3.116397403480708e-31
7.479739869934967,-1.5429691715418864e-31
7.483741870935467,-7.61493754936823e-32
7.487743871935967,-3.7461065428462044e-32
7.491745872936468,-1.8369552890715314e-32
7.495747873936968,-8.978870929058413e-33
7.499749874937468,-4.374712865570151e-33
7.503751875937969,-2.1246238874896284e-33
7.507753876938469,-1.0285354114050559e-33
7.511755877938969,-4.963192491457144e-34
7.5157578789394694,-2.3873037023499173e-34
7.519759879939969,-1.1446136110320302e-34
7.523761880940469,-5.470346326498788e-35
7.52776388194097,-2.606006055750336e-35
7.53176588294147,-1.2374871581561549e-35
7.53576788394197,-5.8574779576340244e-36
7.539769884942471,-2.7636644181981897e-36
7.543771885942971,-1.2997643865608556e-36
7.547773886943471,-6.093245005510712e-37
7.551775887943972,-2.847326900255319e-37
7.555777888944472,-1.3262662041010894e-37
7.559779889944972,-6.157845055933686e-38
7.563781890945473,-2.8499122807977476e-38
7.567783891945973,-1.3147370767355916e-38
7.5717858929464725,-6.04576149579458e-39
7.575787893946973,-2.7711995004458377e-39
7.579789894947473,-1.2661619427460516e-39
7.583791895947973,-5.766541227594183e-40
7.587793896948473,-2.6178588645820934e-40
7.591795897948974,-1.1846273044761427e-40
7.595797898949474,-5.343452215151042e-41
7.599799899949974,-2.4025188480745945e-41
7.603801900950475,-1.0767536655331026e-41
7.607803901950975,-4.810282652294231e-42
7.611805902951475,-2.1420495642874574e-42
7.615807903951976,-9.508086343974174e-43
7.619809904952476,-4.206892361788303e-43
7.623811905952976,-1.855386385420442e-43
7.6278139069534765,-8.156653483159106e-44
7.6318159079539765,-3.574327494765051e-44
7.635817908954476,-1.5612820008485093e-44
7.639819909954977,-6.797872990685325e-45
7.643821910955477,-2.9503220233082865e-45
7.647823911955977,-1.2763520439768843e-45
7.651825912956478,-5.503972016775977e-46
7.655827913956978,-2.3658469068960788e-46
7.659829914957478,-1.0136820147375381e-46
7.663831915957979,-4.3293383251236067e-47
7.667833916958479,-1.843087666100326e-47
7.671835917958979,-7.821231516940883e-48
7.675837918959479,-3.3083311374607515e-48
7.67983991995998,-1.3949141674657928e-48
7.68384192096048,-5.8626056192566985e-49
7.6878439219609795,-2.456057650143865e-49
7.69184592296148,-1.0256309438578775e-49
7.69584792396198,-4.269218236488393e-50
7.69984992496248,-1.7713740514640057e-50
7.703851925962981,-7.326168161536367e-51
7.707853926963481,-3.0202866954551725e-51
7.711855927963981,-1.24114961828154e-51
7.715857928964482,-5.083991180670144e-52
7.719859929964982,-2.075822050359168e-52
7.723861930965482,-8.448510249906889e-53
7.727863931965983,-3.427479229589214e-53
7.731865932966483,-1.386035040879732e-53
7.735867933966983,-5.586994840094728e-54
7.7398699349674835,-2.2448483748620048e-54
7.7438719359679835,-8.99084347092746e-55
7.7478739369684835,-3.5893725973977655e-55
7.751875937968984,-1.4283720093170687e-55
7.755877938969484,-5.665898643217654e-56
7.759879939969984,-2.240273044023767e-56
7.763881940970485,-8.829534083266386e-57
7.767883941970985,-3.4688003421327643e-57
7.771885942971485,-1.3583932077579098e-57
7.775887943971985,-5.302447549776248e-58
7.779889944972486,-2.063155410899753e-58
7.783891945972986,-8.001882817236478e-59
7.787893946973486,-3.0935498090678277e-59
7.791895947973987,-1.1921385194406146e-59
7.795897948974487,-4.579320187268828e-60
7.799899949974987,-1.7533958823528143e-60
7.8039019509754874,-6.692118707539566e-61
7.807903951975987,-2.5459623193748363e-61
7.811905952976487,-9.654837962540709e-62
7.815907953976988,-3.649578328150064e-62
7.819909954977488,-1.3751341600183208e-62
7.823911955977988,-5.164783653505414e-63
7.827913956978489,-1.9335877219677253e-63
7.831915957978989,-7.215730546433781e-64
7.835917958979489,-2.684116838971789e-64
7.83991995997999,-9.952385918164355e-65
7.84392196098049,-3.678389222476245e-65
7.84792396198099,-1.3551670602768697e-65
7.851925962981491,-4.976599300139793e-66
7.855927963981991,-1.821701405680908e-66
7.8599299649824905,-6.64701095750537e-67
7.8639319659829905,-2.417576792058237e-67
7.867933966983491,-8.764736075746881e-68
7.871935967983991,-3.1673940042784258e-68
7.875937968984491,-1.1409589499575538e-68
7.879939969984992,-4.0967798854337076e-69
7.883941970985492,-1.4662901716884082e-69
7.887943971985992,-5.2312069170037634e-70
7.891945972986493,-1.860323857248923e-70
7.895947973986993,-6.594469964904918e-71
7.899949974987493,-2.330107273265918e-71
7.903951975987994,-8.206852318252175e-72
7.907953976988494,-2.8812570358758365e-72
7.911955977988994,-1.008305346653549e-72
7.9159579789894945,-3.5172789984136333e-73
7.9199599799899945,-1.2229994160051522e-73
7.923961980990494,-4.238872584537074e-74
7.927963981990995,-1.4644655407917384e-74
7.931965982991495,-5.043274810908075e-75
7.935967983991995,-1.731214147066138e-75
7.939969984992496,-5.923707870267545e-76
7.943971985992996,-2.0204176583117402e-76
7.947973986993496,-6.868997528202117e-77
7.951975987993997,-2.3278245634548247e-77
7.955977988994497,-7.863426197758117e-78
7.959979989994997,-2.6477566380341037e-78
7.963981990995497,-8.886873492862909e-79
7.967983991995998,-2.9732033418869994e-79
7.971985992996498,-9.915278304929366e-80
7.9759879939969975,-3.2960203690135698e-80
7.979989994997498,-1.0921431022288888e-80
7.983991995997998,-3.607230458919146e-81
7.987993996998498,-1.1876074508905438e-81
7.991995997998999,-3.897414708497421e-82
7.995997998999499,-1.2749260881383264e-82
8.0,-4.157172809414137e-83
