Time,ECG
0.0,1.4917736222375215
0.00200010000500025,0.03863796407658168
0.0040002000100005,-0.017985184329541073
0.006000300015000751,-0.03408391480933864
0.008000400020001,-0.04275728378512606
0.01000050002500125,0.0546238517120492
0.012000600030001501,0.04963441597311888
0.014000700035001751,-0.038181544773506305
0.016000800040002,-0.052126403147959056
0.018000900045002252,0.030224124738532962
0.0200010000500025,0.0012925765721661982
0.02200110005500275,-0.031216660431223998
0.024001200060003003,-0.03057902467130924
0.02600130006500325,0.03082419695579632
0.028001400070003502,0.07238993355106996
0.03000150007500375,0.02740998321009437
0.032001600080004,0.03896339644438757
0.03400170008500425,0.0006342124724138049
0.036001800090004504,-0.00030935486557434155
0.03800190009500475,-0.03741929076876762
0.040002000100005,-0.04047284840594431
0.042002100105005255,-0.02203409137137824
0.0440022001100055,0.003962159481575224
0.04600230011500575,0.051987253906577005
0.048002400120006006,-0.012480845427423705
0.050002500125006254,0.029779451423619818
0.0520026001300065,0.0011936913383335367
0.05400270013500675,-0.009977221551562146
0.056002800140007004,-0.04745919639623623
0.05800290014500725,-0.0834542469096885
0.0600030001500075,0.09923240493823855
0.062003100155007755,0.014121188412691174
0.064003200160008,-0.09472326538535342
0.06600330016500826,-0.02219229986252428
0.0680034001700085,0.013835178035154591
0.07000350017500875,0.04012328163086365
0.07200360018000901,0.09895704562230366
0.07400370018500925,0.06369478592136159
0.0760038001900095,0.018787467687318905
0.07800390019500976,-0.09037417758111159
0.08000400020001,-0.07194704989924264
0.08200410020501026,-0.01324371680146088
0.08400420021001051,0.03410064047739662
0.08600430021501075,0.020219568201648372
0.088004400220011,-0.04496317839062683
0.09000450022501126,-0.05246942805170738
0.0920046002300115,-0.044732039709453275
0.09400470023501176,-0.03003983196054327
0.09600480024001201,0.03338073844821099
0.09800490024501225,0.0225587470622783
0.10000500025001251,0.0907735541794618
0.10200510025501275,0.10528704279560175
0.104005200260013,0.10947058072171999
0.10600530026501326,0.012249924632700372
0.1080054002700135,-0.012416461226782223
0.11000550027501375,-0.07752684181401429
0.11200560028001401,0.10391503631643353
0.11400570028501425,-0.00889396125868985
0.1160058002900145,0.043675551835762674
0.11800590029501476,-0.04366882310973133
0.120006000300015,0.12428308908882083
0.12200610030501526,0.009231386366237234
0.12400620031001551,-0.02949248246423239
0.12600630031501575,-0.02280742104938326
0.128006400320016,0.054478704649602895
0.13000650032501626,0.015055060701547301
0.13200660033001652,-0.014818559625324093
0.13400670033501674,0.023449525274616138
0.136006800340017,-0.015296249378739586
0.13800690034501725,-0.08322967362805016
0.1400070003500175,0.04777672092675792
0.14200710035501776,0.05086283842261612
0.14400720036001802,0.05319379613158837
0.14600730036501824,-0.057408896765271666
0.1480074003700185,-0.0498528393404082
0.15000750037501875,-0.024752337843244737
0.152007600380019,-0.03440831261765396
0.15400770038501926,-0.03794520744962598
0.15600780039001952,0.10730304631872278
0.15800790039501975,-0.046275580440735126
0.16000800040002,0.07262377848486545
0.16200810040502026,0.017713619829944648
0.1640082004100205,0.024330667608870427
0.16600830041502077,0.07712107402966875
0.16800840042002102,-0.06485577833510733
0.17000850042502125,0.1259482765251287
0.1720086004300215,0.06705339080256063
0.17400870043502176,-0.0160272619932772
0.176008800440022,0.11072779191924934
0.17800890044502227,-0.0014571780361866205
0.18000900045002252,-0.02679493792692139
0.18200910045502275,0.01958199598354938
0.184009200460023,0.08980799553408036
0.18600930046502326,0.05788960382361406
0.1880094004700235,0.04150759868698286
0.19000950047502377,-0.01892687721909849
0.19200960048002402,0.02546915651885754
0.19400970048502425,-0.09366221941659492
0.1960098004900245,-0.05306421590119133
0.19800990049502476,-0.04198148476059037
0.20001000050002501,0.028398446400618112
0.20201010050502527,0.02050819769006949
0.2040102005100255,-0.04149996345878715
0.20601030051502575,0.026272406587534654
0.208010400520026,-0.02496642609298471
0.21001050052502626,-0.010799906883224167
0.21201060053002652,0.05702891711712504
0.21401070053502677,0.032378836201993416
0.216010800540027,0.06579516959751934
0.21801090054502725,-0.03201762977827745
0.2200110005500275,0.025226709679856775
0.22201110055502776,-0.019965784464374553
0.22401120056002802,0.08299267300212375
0.22601130056502827,0.018673041348921098
0.2280114005700285,0.03427974677724178
0.23001150057502875,0.020106609698780222
0.232011600580029,-0.09978929281509806
0.23401170058502926,0.0007798123793413287
0.23601180059002952,0.01886683451933566
0.23801190059502977,0.03446186889710115
0.24001200060003,0.05625151709944215
0.24201210060503026,-0.06261835412520962
0.2440122006100305,0.003879350989328367
0.24601230061503077,0.04272976595552819
0.24801240062003102,-0.07776602439036284
0.2500125006250313,0.0368331341234652
0.2520126006300315,0.014256451174101754
0.2540127006350318,0.024870560055624828
0.256012800640032,-0.08486844884629191
0.25801290064503224,0.006508708091430993
0.2600130006500325,-0.055732987432903475
0.26201310065503275,-0.06582752394830883
0.26401320066003303,0.022015116104486646
0.26601330066503326,-0.02205816410632347
0.2680134006700335,-0.059171869224127364
0.27001350067503377,0.0009600931985272728
0.272013600680034,-0.02561665033041139
0.2740137006850343,0.023899795123389037
0.2760138006900345,0.0033397855837959027
0.2780139006950348,-0.04457724455578265
0.280014000700035,0.09280458812364192
0.28201410070503524,0.009108069381503534
0.2840142007100355,-0.0015760523215556197
0.28601430071503575,0.02567587637022713
0.28801440072003603,-0.04859554066520819
0.29001450072503626,0.049934114883588045
0.2920146007300365,0.07352290362447714
0.29401470073503677,0.024445640160251983
0.296014800740037,0.005129089582292957
0.2980149007450373,-0.03421963112044019
0.3000150007500375,0.05468038241392684
0.3020151007550378,0.007316289024462779
0.304015200760038,0.008728379342428006
0.30601530076503825,-0.03133069212887354
0.3080154007700385,0.030225511206163586
0.31001550077503875,0.055235287490735946
0.31201560078003904,-0.0016841895267848605
0.31401570078503926,-0.013012816402951245
0.3160158007900395,-0.0395447180522312
0.3180159007950398,0.047911239738991
0.32001600080004,0.004209060343828781
0.3220161008050403,-0.03968533543904212
0.3240162008100405,0.031760706012202954
0.32601630081504074,0.08171860103989777
0.328016400820041,0.03593351969124528
0.33001650082504125,0.009453343299720455
0.33201660083004153,-0.11167701887852047
0.33401670083504176,-0.12240999042413321
0.33601680084004204,-0.014304657957903817
0.33801690084504227,0.029208362000468915
0.3400170008500425,-0.021360264087066153
0.3420171008550428,-0.01587346810010849
0.344017200860043,-0.015233205750431465
0.3460173008650433,-0.021570429423246912
0.3480174008700435,-0.006761503360357121
0.35001750087504374,0.019311318608482626
0.352017600880044,-0.030552063262274866
0.35401770088504425,0.0032875680880196535
0.35601780089004453,0.046555570189932935
0.35801790089504476,0.012820281176667312
0.36001800090004504,-0.07238651539074363
0.36201810090504527,0.00811506443981387
0.3640182009100455,4.1715823131185584e-05
0.3660183009150458,-0.029497924170531126
0.368018400920046,0.003577245813711992
0.3700185009250463,0.015471772562312393
0.3720186009300465,-0.07988919770001023
0.37401870093504674,-0.025322953712766896
0.376018800940047,0.029931276750767667
0.37801890094504725,0.09023140553518509
0.38001900095004754,-0.026444759453300645
0.38201910095504776,0.020109213964829495
0.38401920096004805,0.042470976537071645
0.3860193009650483,-0.06584204750659682
0.3880194009700485,0.07635653040473095
0.3900195009750488,-0.005107275772306782
0.392019600980049,0.04143675648516367
0.3940197009850493,0.006759741156654425
0.3960198009900495,-0.04261099896814813
0.39801990099504975,0.01985052522831013
0.40002000100005003,0.031262409215893835
0.40202010100505026,0.0073355270012195675
0.40402020101005054,0.018446215368872653
0.40602030101505077,0.009868898622196675
0.408020401020051,-0.06727765200562338
0.4100205010250513,0.02713925116991363
0.4120206010300515,-0.04814961122837183
0.4140207010350518,0.042731046138994484
0.416020801040052,-0.11966705042385564
0.4180209010450523,0.0768160897886539
0.4200210010500525,-0.08286857185167773
0.42202110105505275,0.09667921222055074
0.42402120106005303,0.0019854021617709615
0.42602130106505326,0.015526895791501986
0.42802140107005354,0.01465269001175406
0.43002150107505377,-0.04444363300211679
0.432021601080054,0.03851041726138983
0.4340217010850543,-0.04456621273818679
0.4360218010900545,-0.12482981944373227
0.4380219010950548,-0.007423039216123093
0.440022001100055,-0.03538971523032946
0.4420221011050553,0.029804445744472954
0.4440222011100555,0.006138126721201745
0.44602230111505575,-0.038048551147436306
0.44802240112005604,-0.09249585993584332
0.45002250112505626,-0.050312584869180124
0.45202260113005654,-0.11559227516330546
0.45402270113505677,0.024557198326786375
0.456022801140057,-0.014438129109046183
0.4580229011450573,0.10389231912591396
0.4600230011500575,0.039475352099434625
0.4620231011550578,0.020365376807887404
0.464023201160058,-0.005377277410288525
0.46602330116505825,0.01698399754934364
0.46802340117005853,0.020520012989966696
0.47002350117505876,0.014423741489297572
0.47202360118005904,-0.021271206180578626
0.47402370118505927,0.021360488801345712
0.47602380119005955,-0.12346906630257365
0.4780239011950598,0.014207299728357365
0.48002400120006,0.13997777642491932
0.4820241012050603,-0.07959477739726174
0.4840242012100605,-0.12378351185198444
0.4860243012150608,0.07931903877228645
0.488024401220061,-0.057457585127016646
0.49002450122506125,0.014824093297599926
0.49202460123006153,0.056565489079182386
0.49402470123506176,0.034019303885574254
0.49602480124006204,-0.09001594404530193
0.49802490124506227,-0.007494201278669301
0.5000250012500626,-0.05050292053399678
0.5020251012550627,-0.1165234959086992
0.504025201260063,-0.05664452285292474
0.5060253012650633,0.02740839816443748
0.5080254012700636,-0.0528794574548209
0.5100255012750637,0.06684621711167107
0.512025601280064,0.0022330731338734964
0.5140257012850643,0.05485512211180246
0.5160258012900645,0.015143746427560707
0.5180259012950648,-0.026886319728591335
0.520026001300065,-0.06872156689475488
0.5220261013050653,-0.05649626362304122
0.5240262013100655,0.055972781161455765
0.5260263013150658,0.11265129454787788
0.5280264013200661,0.03238996760438636
0.5300265013250662,0.02914425173003248
0.5320266013300665,0.03475694191736274
0.5340267013350668,-0.014826865559209763
0.536026801340067,-0.03816565192732926
0.5380269013450673,0.07648932181830947
0.5400270013500675,-0.006118111077461575
0.5420271013550678,0.058082092620293305
0.544027201360068,0.07239918433260593
0.5460273013650683,0.02295281126928267
0.5480274013700686,-0.004037395109443672
0.5500275013750687,-0.003588403024283305
0.552027601380069,0.026076067994134058
0.5540277013850693,0.027347167008214587
0.5560278013900696,-0.00671381590002753
0.5580279013950697,-0.04518417792187496
0.56002800140007,-0.013442388037660957
0.5620281014050703,-0.011947360538796761
0.5640282014100705,0.0017595648898700127
0.5660283014150708,0.07391457585105503
0.568028401420071,-0.0968621344012644
0.5700285014250713,-0.06658940510231513
0.5720286014300715,0.024631470975589726
0.5740287014350718,0.06307977089395315
0.5760288014400721,0.02752984433222272
0.5780289014450722,-0.0039013081783200233
0.5800290014500725,-0.05530808650121985
0.5820291014550728,0.0375034712834762
0.584029201460073,0.09564187777830538
0.5860293014650733,-0.004086944888624869
0.5880294014700735,0.016202956777520497
0.5900295014750738,0.07464250693118196
0.592029601480074,0.033822701512786706
0.5940297014850743,-0.012456224559983936
0.5960298014900746,-0.03865753358146547
0.5980299014950747,0.06426423601212639
0.600030001500075,-0.03527568722675087
0.6020301015050753,-0.015130275155047552
0.6040302015100756,0.045151905086058416
0.6060303015150758,-0.07482148225859862
0.608030401520076,0.017651897716415118
0.6100305015250763,-0.05537181391943871
0.6120306015300765,0.04515554258937638
0.6140307015350768,0.04286131329068017
0.616030801540077,0.0794020246083117
0.6180309015450772,0.06883801725812008
0.6200310015500775,-0.04572262885290249
0.6220311015550778,0.06459729813317569
0.6240312015600781,0.049029626166720776
0.6260313015650782,-0.04703222969007731
0.6280314015700785,-0.0025277500070971753
0.6300315015750788,-0.013355834909312645
0.632031601580079,0.015153664167003218
0.6340317015850793,-0.07571069105720843
0.6360318015900795,0.01557937922599313
0.6380319015950798,-0.012967021546858002
0.64003200160008,0.03302072032646004
0.6420321016050803,-0.010594991524963761
0.6440322016100806,0.0383130923005781
0.6460323016150807,-0.09524299863116933
0.648032401620081,0.060061023389626204
0.6500325016250813,-0.06267189032088652
0.6520326016300815,0.0047420695160897836
0.6540327016350818,0.004717865306426736
0.656032801640082,-0.07350707259145392
0.6580329016450823,0.06343882483325487
0.6600330016500825,-0.12362823233465121
0.6620331016550828,-0.005203381999029404
0.6640332016600831,-0.014252805409040914
0.6660333016650832,0.03510905317330592
0.6680334016700835,-0.008545144260571883
0.6700335016750838,-0.02728470429564449
0.6720336016800841,-0.06594252493310318
0.6740337016850843,-0.0015496824348243642
0.6760338016900845,-0.0886235969739301
0.6780339016950848,-0.09932794242632707
0.680034001700085,0.003922932801804594
0.6820341017050853,0.06494842836678139
0.6840342017100856,-0.05863266392289388
0.6860343017150858,-0.05337477829642533
0.688034401720086,-0.03914190042683417
0.6900345017250863,0.03173300802712344
0.6920346017300866,0.06240333860621085
0.6940347017350867,0.0002988280895170244
0.696034801740087,-0.022898275796755328
0.6980349017450873,-0.004043740499068716
0.7000350017500875,0.018469265266510018
0.7020351017550878,-0.021500017788638786
0.704035201760088,-0.08259282945615781
0.7060353017650883,0.02455992587704112
0.7080354017700885,0.015322015562704539
0.7100355017750888,0.019462746390256597
0.7120356017800891,0.05210990970411042
0.7140357017850892,0.026748817245520223
0.7160358017900895,0.06544820862608325
0.7180359017950898,0.0037922349742351095
0.7200360018000901,-0.019222608553181125
0.7220361018050903,0.006778224077892102
0.7240362018100905,-0.10507164683209132
0.7260363018150908,-0.07749377878151678
0.728036401820091,0.03271946593641222
0.7300365018250913,-0.02381437840315529
0.7320366018300916,0.019630644510506005
0.7340367018350917,0.08513741849050344
0.736036801840092,0.037707872944996085
0.7380369018450923,0.07804556918378125
0.7400370018500926,0.007671033948820381
0.7420371018550928,0.0723818609975502
0.744037201860093,-0.030156410503347178
0.7460373018650933,-0.04695035641109396
0.7480374018700935,0.005551197585451948
0.7500375018750938,-0.03918491831576215
0.752037601880094,-0.033731645334174214
0.7540377018850943,0.050848924205594094
0.7560378018900945,0.07995977966728575
0.7580379018950948,-0.004548107917960789
0.7600380019000951,0.04544116000742529
0.7620381019050952,0.04016686665894115
0.7640382019100955,0.029811666313327424
0.7660383019150958,-0.10038869988121442
0.7680384019200961,0.02769501821433289
0.7700385019250963,-0.13513460737302427
0.7720386019300965,-0.06009621149256248
0.7740387019350968,0.021071914129200522
0.776038801940097,-0.019697903711350436
0.7780389019450973,-0.07959800765753662
0.7800390019500976,-0.06321815768380327
0.7820391019550977,0.13788756236717775
0.784039201960098,-0.03980045802832281
0.7860393019650983,0.0028353799664267887
0.7880394019700986,0.04455684630676122
0.7900395019750988,-0.08602722704941712
0.792039601980099,0.17675575740778848
0.7940397019850993,0.03561882010112178
0.7960398019900995,-0.014649039707202436
0.7980399019950998,-0.01773985145436154
0.8000400020001001,-0.04256062491207533
0.8020401020051003,-0.024854362106260703
0.8040402020101005,0.12184310902149056
0.8060403020151008,0.09694248237470879
0.8080404020201011,-0.0804541196065582
0.8100405020251013,0.024640430341528116
0.8120406020301015,-0.11754828404291079
0.8140407020351018,0.021775647571920565
0.816040802040102,-0.05419081951021071
0.8180409020451023,-0.02398321938176411
0.8200410020501026,0.05030410189564416
0.8220411020551028,-0.036539770126619193
0.824041202060103,0.07302195569793722
0.8260413020651033,-0.02585124659179258
0.8280414020701036,-0.05833355219441669
0.8300415020751037,0.10017239393874251
0.832041602080104,-0.03111625166083258
0.8340417020851043,0.050315276155410996
0.8360418020901046,-0.009400591362579501
0.8380419020951048,-0.11516909913695013
0.840042002100105,0.0594188511251346
0.8420421021051053,0.01083545070500648
0.8440422021101055,0.10067838313881353
0.8460423021151058,-0.003920364991407568
0.8480424021201061,0.11322765571052135
0.8500425021251062,-0.01661607808255147
0.8520426021301065,0.005162917767025079
0.8540427021351068,-0.08100286362887466
0.8560428021401071,-0.006088076402587291
0.8580429021451073,0.001042036965804138
0.8600430021501075,-0.02291958475798158
0.8620431021551078,-0.07868870867367567
0.864043202160108,0.0023997594017287445
0.8660433021651083,-0.08152826535471895
0.8680434021701086,0.011761447246174499
0.8700435021751088,-0.0897710929944855
0.872043602180109,0.007318335886593603
0.8740437021851093,0.05416861916579072
0.8760438021901096,0.05191944365261134
0.8780439021951097,0.03018714952103725
0.88004400220011,0.009684252104092128
0.8820441022051103,-0.004563006032173657
0.8840442022101106,-0.04766333762125245
0.8860443022151108,0.06571333623781062
0.888044402220111,-0.10898916355397155
0.8900445022251113,0.02814898302600574
0.8920446022301115,-0.031688447962228874
0.8940447022351118,0.051597696446220934
0.8960448022401121,0.005793438762774397
0.8980449022451122,0.03242330302010309
0.9000450022501125,-0.002603870977941659
0.9020451022551128,0.041499187364562914
0.9040452022601131,0.10913110368331402
0.9060453022651133,-0.05410068748016711
0.9080454022701135,-0.07001884713590953
0.9100455022751138,-0.010007235394614233
0.912045602280114,-0.03440607095100796
0.9140457022851143,-0.02461228509942408
0.9160458022901146,0.002201994655992722
0.9180459022951148,-0.09965681684243433
0.920046002300115,-0.019627939705925662
0.9220461023051153,0.027704099497650087
0.9240462023101156,0.010884733907243292
0.9260463023151158,-0.010607614522281143
0.928046402320116,-0.04058224789739443
0.9300465023251163,0.07654826977813789
0.9320466023301165,0.0379553384114524
0.9340467023351168,-0.04286680213825416
0.9360468023401171,-0.02376196606512624
0.9380469023451173,-0.02803079216475255
0.9400470023501175,-0.08872710098015224
0.9420471023551178,0.04815740505783487
0.9440472023601181,-0.0009160536571446772
0.9460473023651182,-0.04939858641846943
0.9480474023701185,-0.043078845659605354
0.9500475023751188,-0.13205517415057239
0.9520476023801191,0.049321387418690334
0.9540477023851193,0.09801621003049367
0.9560478023901195,0.08791644909855295
0.9580479023951198,-0.02308044374949568
0.96004800240012,-0.06450538832513796
0.9620481024051203,0.010715086359611027
0.9640482024101206,0.06580431196168499
0.9660483024151207,0.02887197711134499
0.968048402420121,-0.004112466890240652
0.9700485024251213,0.005835009650514806
0.9720486024301216,0.0029215915947251804
0.9740487024351218,-0.08071841307963679
0.976048802440122,0.02062303587488352
0.9780489024451223,0.07149406111859204
0.9800490024501225,0.05738168461222053
0.9820491024551228,-0.041482505144670806
0.9840492024601231,0.03865599794655819
0.9860493024651233,0.006576366317654839
0.9880494024701235,0.03225741584208746
0.9900495024751238,0.033101473766343745
0.9920496024801241,0.13268438415149483
0.9940497024851243,0.049784882578854044
0.9960498024901245,-0.009001574792059668
0.9980499024951248,-0.10045283544342845
1.000050002500125,-0.09339886086595343
1.0020501025051254,-0.02389954590723536
1.0040502025101254,0.002247051391287834
1.0060503025151257,-0.17128552271189243
1.008050402520126,0.10442863819766596
1.0100505025251263,-0.03484495408661949
1.0120506025301266,0.0717832482346116
1.0140507025351269,-0.016829497177273056
1.0160508025401271,-0.014128071424048226
1.0180509025451272,-0.013098285259265622
1.0200510025501275,-0.06607474611674732
1.0220511025551278,0.03198793851371778
1.024051202560128,-0.06656007878100696
1.0260513025651283,-0.014260398681227202
1.0280514025701286,0.014952709091699374
1.030051502575129,-0.07127114908552572
1.032051602580129,0.09924266626620887
1.0340517025851292,0.014186989625618677
1.0360518025901295,0.0028970166480230593
1.0380519025951298,-0.0008871023702708049
1.04005200260013,0.03493079933691968
1.0420521026051304,-0.02371721837150802
1.0440522026101307,-0.03334329604629525
1.0460523026151307,0.10355921204129502
1.048052402620131,-0.030671129426069033
1.0500525026251313,0.07412459101437656
1.0520526026301316,-0.09175447579550053
1.0540527026351318,0.0599272721289321
1.0560528026401321,0.011075920814767473
1.0580529026451324,0.032996015945940975
1.0600530026501325,-0.03132119114025121
1.0620531026551328,0.04204135955424362
1.064053202660133,-0.004384056847368489
1.0660533026651333,-0.019490500236686387
1.0680534026701336,0.02859953143576567
1.0700535026751339,0.030479769203831882
1.072053602680134,-0.013695956426770376
1.0740537026851342,0.05141107818520072
1.0760538026901345,0.0003663198236792348
1.0780539026951348,0.06311594306119027
1.080054002700135,0.01689775311068631
1.0820541027051354,0.08286435861355854
1.0840542027101356,0.1003724098271368
1.0860543027151357,-0.033557830968229535
1.088054402720136,-0.02860860264141902
1.0900545027251363,0.01353229128935357
1.0920546027301365,0.050700715624235684
1.0940547027351368,0.02969918133873263
1.0960548027401371,0.002137519863884995
1.0980549027451374,0.021378075861330583
1.1000550027501375,-0.07030576568470413
1.1020551027551377,0.002240432855113166
1.104055202760138,0.00877162892818552
1.1060553027651383,-0.05778220747276395
1.1080554027701386,-0.018122531196639202
1.1100555027751389,0.0034833989338516297
1.1120556027801392,-0.0502838936937568
1.1140557027851392,-0.004898468809979495
1.1160558027901395,-0.04659865712526933
1.1180559027951398,-0.07802332290693975
1.12005600280014,-0.0347511451795774
1.1220561028051403,-0.046901526773435565
1.1240562028101406,0.015526604386569654
1.126056302815141,0.10259821201414952
1.128056402820141,-0.021852091313376378
1.1300565028251413,0.025553757841895765
1.1320566028301415,0.003700923231619231
1.1340567028351418,0.1175622455416981
1.136056802840142,0.07047497548022874
1.1380569028451424,-0.025291247758173964
1.1400570028501427,0.05336949371427259
1.1420571028551427,0.012083168319390178
1.144057202860143,-0.021668559733706027
1.1460573028651433,-0.04853530368213488
1.1480574028701436,-0.06683232699317791
1.1500575028751439,0.06259262112142615
1.1520576028801441,-0.004671644381416584
1.1540577028851442,0.01981696436691079
1.1560578028901445,0.0006548271253430718
1.1580579028951448,-0.043630988079014436
1.160058002900145,0.038821932456678705
1.1620581029051453,-0.0034764962375166742
1.1640582029101456,-0.012166710776583602
1.166058302915146,-0.014529327630501937
1.168058402920146,0.013522897045008276
1.1700585029251462,0.05053271575213628
1.1720586029301465,0.026491930258733587
1.1740587029351468,-0.022103858313014684
1.176058802940147,0.023478451408072996
1.1780589029451474,-0.1048584559820601
1.1800590029501477,-0.08231559341239612
1.1820591029551477,0.023562347627082866
1.184059202960148,0.09345382970651347
1.1860593029651483,0.010972331845410436
1.1880594029701486,-0.045107973702143624
1.1900595029751488,-0.004525578643750596
1.1920596029801491,0.02782793091641944
1.1940597029851494,0.05057328808038352
1.1960598029901495,-0.04264241099006144
1.1980599029951498,-0.07858192326753588
1.20006000300015,-0.06694504607312356
1.2020601030051503,0.08579737631560765
1.2040602030101506,-0.02372305588100092
1.2060603030151509,0.04651399128544638
1.2080604030201512,0.07468633804427428
1.2100605030251512,0.022514229358397683
1.2120606030301515,-0.07328786226557804
1.2140607030351518,0.034043815739558496
1.216060803040152,-0.01089161588347588
1.2180609030451524,0.04951467367607853
1.2200610030501526,0.09170007333621855
1.2220611030551527,-0.06187038264308862
1.224061203060153,-0.037917426066988225
1.2260613030651533,0.051544880786411874
1.2280614030701535,-0.055600968600891844
1.2300615030751538,-0.008506148753378578
1.232061603080154,-0.004595735227811585
1.2340617030851544,0.08251670149787155
1.2360618030901545,-0.07437244294059808
1.2380619030951547,-0.008030584463820328
1.240062003100155,-0.020574856102244063
1.2420621031051553,0.04328842168662519
1.2440622031101556,-0.06535027503007962
1.2460623031151559,-0.019301170195630494
1.2480624031201561,-0.07284091223598331
1.2500625031251562,-0.05776211673805727
1.2520626031301565,0.04072424106663112
1.2540627031351568,-0.019576020397171743
1.256062803140157,-0.004888578463533398
1.2580629031451573,-0.06864572629154762
1.2600630031501576,0.002064773175718957
1.262063103155158,-0.07622391795706425
1.264063203160158,0.049141372172280956
1.2660633031651582,-0.0700671831257417
1.2680634031701585,0.02146327740155265
1.2700635031751588,0.03192149644370254
1.272063603180159,-0.00911076022557195
1.2740637031851594,-0.04448594101330451
1.2760638031901597,-0.052223183106535204
1.2780639031951597,-0.0061683902142116685
1.28006400320016,0.007364706605204514
1.2820641032051603,0.05681676091033904
1.2840642032101606,0.02636986650748488
1.2860643032151609,0.021699136025646628
1.2880644032201611,-0.014037156618609435
1.2900645032251614,0.04895812029268285
1.2920646032301615,-0.06469715768326968
1.2940647032351618,0.02713968930680019
1.296064803240162,-0.017112051002972747
1.2980649032451623,-0.044349996933675175
1.3000650032501626,-0.06533459434246242
1.302065103255163,0.036283931121847565
1.304065203260163,0.07365492026354288
1.3060653032651632,-0.03934699941895145
1.3080654032701635,0.04446926962404478
1.3100655032751638,0.0362075599800568
1.312065603280164,0.008584035282461105
1.3140657032851644,-0.00157902638479964
1.3160658032901646,0.07509425580059415
1.3180659032951647,0.031481302185337644
1.320066003300165,-0.013258250579098236
1.3220661033051653,-0.0019974416149783542
1.3240662033101656,0.10111168734417793
1.3260663033151658,-0.013112595752582959
1.3280664033201661,0.026625991070075013
1.3300665033251664,-0.11437697699786001
1.3320666033301665,0.07011918921579101
1.3340667033351667,0.0047646089045742974
1.336066803340167,-0.01106380943358917
1.3380669033451673,0.020722985979544847
1.3400670033501676,-0.006019137790048628
1.3420671033551679,-0.05871351638868871
1.3440672033601682,-0.05591510444378637
1.3460673033651682,-0.03673892509875021
1.3480674033701685,0.264949749705347
1.3500675033751688,0.010915517438202365
1.352067603380169,0.09685350477618021
1.3540677033851694,-0.04045634896066194
1.3560678033901696,-0.008892083931084035
1.35806790339517,-0.012365584062226306
1.36006800340017,-0.02741170483651183
1.3620681034051703,0.00761915667288606
1.3640682034101705,0.061935791426431554
1.3660683034151708,-0.056387957289269
1.368068403420171,-0.4432080378445491
1.3700685034251714,0.007695205380812059
1.3720686034301717,-0.01761300136305445
1.3740687034351717,-0.01895253820225572
1.376068803440172,-0.012387943266574823
1.3780689034451723,1.4465263644789417
1.3800690034501726,-0.032396037028497686
1.3820691034551729,-0.09253879879555171
1.3840692034601731,-0.008219936983176726
1.3860693034651732,-0.020526973435391116
1.3880694034701735,-0.347641299783663
1.3900695034751738,-0.02719424553992887
1.392069603480174,0.016384017734718596
1.3940697034851743,-0.059631747809542585
1.3960698034901746,0.014250012028271275
1.398069903495175,0.01928023661654165
1.400070003500175,-0.03528178940994422
1.4020701035051752,0.03407176260610079
1.4040702035101755,0.031241576380602355
1.4060703035151758,-0.034120746905249744
1.408070403520176,0.32863764023159736
1.4100705035251764,0.01531816277521034
1.4120706035301767,0.015365462196654729
1.4140707035351767,0.04360973831564474
1.416070803540177,0.028080403459913666
1.4180709035451773,-0.02919464369812183
1.4200710035501776,0.07202517209786974
1.4220711035551779,0.05407891855919516
1.4240712035601781,0.05088093626273275
1.4260713035651784,0.05487363824854037
1.4280714035701785,0.029939487739929212
1.4300715035751788,0.05091697015575597
1.432071603580179,-0.10059162758785228
1.4340717035851793,0.017751151957468004
1.4360718035901796,0.04111739399969863
1.43807190359518,-0.009322437266421105
1.4400720036001802,0.08036912921373202
1.4420721036051802,0.1625353275197845
1.4440722036101805,0.05518697157561401
1.4460723036151808,-0.04890746347293341
1.448072403620181,-0.0036791260287324067
1.4500725036251814,0.0015587806720028766
1.4520726036301816,0.006285144938529836
1.454072703635182,0.03547316614408457
1.456072803640182,-0.03593428332929368
1.4580729036451823,-0.022894836442209347
1.4600730036501826,-0.005094157029000517
1.4620731036551828,-0.045737384352874444
1.4640732036601831,-0.03132841091677573
1.4660733036651834,0.03194328090722854
1.4680734036701835,-0.0695428782997947
1.4700735036751837,-0.0057630437184679984
1.472073603680184,-0.0628592605781718
1.4740737036851843,-0.06320886541520296
1.4760738036901846,0.07966317129229772
1.4780739036951849,-0.024572498759487138
1.4800740037001852,-0.03077169805130517
1.4820741037051852,0.0035721017736476592
1.4840742037101855,0.015359260968076225
1.4860743037151858,-0.002699103501089436
1.488074403720186,0.043637713638680194
1.4900745037251864,0.03208664760269222
1.4920746037301866,-0.02071878014339513
1.494074703735187,0.04708970413937764
1.496074803740187,0.0754217585743439
1.4980749037451873,-0.03530409467120708
1.5000750037501875,0.04267412460255193
1.5020751037551878,-0.01733113647876004
1.504075203760188,-0.01329818270822192
1.5060753037651884,0.13164188440780522
1.5080754037701887,0.009091621402582267
1.5100755037751887,-0.008817537278990787
1.512075603780189,-0.011516650022965898
1.5140757037851893,-0.0683127215212863
1.5160758037901896,-0.0973742807479847
1.5180759037951899,0.03671483222014205
1.5200760038001901,-0.006102325010954749
1.5220761038051904,0.018031934070793003
1.5240762038101905,0.1380947982435028
1.5260763038151908,0.09659200965193004
1.528076403820191,-0.05331588409709836
1.5300765038251913,-0.029286191939508505
1.5320766038301916,-0.0489252301450054
1.534076703835192,0.0952394454794318
1.5360768038401922,0.015123610233707627
1.5380769038451922,-0.03023194066453812
1.5400770038501925,-0.024867857949089463
1.5420771038551928,-0.06752966791674256
1.544077203860193,0.00623998961547883
1.5460773038651934,-0.010864257901758028
1.5480774038701937,0.013746337048177112
1.5500775038751937,-0.08056650039653866
1.552077603880194,0.053200054888244745
1.5540777038851943,-0.0659008526980868
1.5560778038901946,-0.057228580958390965
1.5580779038951948,0.028693312811138794
1.5600780039001951,0.045252211730489655
1.5620781039051954,-0.03727128367801359
1.5640782039101955,-0.0825614019571907
1.5660783039151958,0.07696236467119834
1.568078403920196,0.01300965436556281
1.5700785039251963,-0.03075281601708886
1.5720786039301966,-0.07034647530362262
1.5740787039351969,0.13310143632710153
1.5760788039401972,-0.002161947696277729
1.5780789039451972,0.03760144137743983
1.5800790039501975,-0.008397968941605745
1.5820791039551978,0.051811656303190345
1.584079203960198,-0.06446950422383108
1.5860793039651984,0.03497575792832196
1.5880794039701986,0.022061652748432692
1.590079503975199,-0.07520300009991866
1.592079603980199,-0.02192524199810548
1.5940797039851993,-0.022180616193455665
1.5960798039901996,-0.1158073823031653
1.5980799039951998,0.05737167369098798
1.6000800040002001,-0.02298779319613944
1.6020801040052004,-0.03556908795910132
1.6040802040102007,0.002579159280019776
1.6060803040152007,-0.007138140578021014
1.608080404020201,-0.07167884523296879
1.6100805040252013,0.07229132162989761
1.6120806040302016,0.060897583407942574
1.6140807040352019,-0.0727033148026232
1.6160808040402022,0.0030614926261674467
1.6180809040452022,0.05272713021157635
1.6200810040502025,0.00917900686477676
1.6220811040552028,0.04307158895014457
1.624081204060203,-0.006601586821197517
1.6260813040652033,-0.06824949426454753
1.6280814040702036,-0.011894322600706289
1.630081504075204,0.0400773745878905
1.632081604080204,-0.02491152237236402
1.6340817040852043,0.03927102919446232
1.6360818040902045,0.024817388617769415
1.6380819040952048,0.04649325545440516
1.640082004100205,-0.04761631395238658
1.6420821041052054,0.03682868685492858
1.6440822041102057,0.018087429322162014
1.6460823041152057,0.024431358328285843
1.648082404120206,-0.00515987431120676
1.6500825041252063,-0.040915013810441436
1.6520826041302066,-0.08801529863196092
1.6540827041352069,0.005785759389957825
1.6560828041402071,-0.0885690552868034
1.6580829041452074,-0.054262328212069666
1.6600830041502075,0.023260002992444014
1.6620831041552078,0.03361159592870221
1.664083204160208,0.06589211897635588
1.6660833041652083,-0.06712311617686915
1.6680834041702086,-0.032037128368875664
1.670083504175209,0.15838400534167624
1.6720836041802092,-0.0033290328262777823
1.6740837041852092,-0.01924166083518941
1.6760838041902095,0.015897987422657005
1.6780839041952098,0.021963866632176036
1.68008400420021,0.01586394709312852
1.6820841042052104,0.05318301628359484
1.6840842042102107,0.006132145932450286
1.686084304215211,0.07148332969799163
1.688084404220211,0.03514062740723306
1.6900845042252113,0.03035797500168886
1.6920846042302116,0.08039038452079485
1.6940847042352118,-0.03088087309767812
1.6960848042402121,-0.0347790494638596
1.6980849042452124,0.029662940744006716
1.7000850042502125,0.03199616837087823
1.7020851042552128,-0.01442423280753828
1.704085204260213,-0.0278251629734825
1.7060853042652133,0.039264332394645156
1.7080854042702136,0.030116095710778674
1.7100855042752139,-0.004253599577971787
1.7120856042802142,0.0890404832736655
1.7140857042852142,-0.03280235033205011
1.7160858042902145,-0.04617922962885914
1.7180859042952148,0.07277044280445236
1.720086004300215,0.018282356369293522
1.7220861043052154,0.036956292853349025
1.7240862043102156,0.04478548750482611
1.726086304315216,0.00046151423824476257
1.728086404320216,-0.06576502747056084
1.7300865043252163,0.07127775040088243
1.7320866043302166,-0.07093492878163371
1.7340867043352168,-0.0008587524223697984
1.7360868043402171,0.04983440167581817
1.7380869043452174,-0.044153595621219704
1.7400870043502177,0.007837907053159938
1.7420871043552177,-0.0192912687663823
1.744087204360218,0.05710541167247024
1.7460873043652183,0.009455878823391405
1.7480874043702186,0.08423932942903811
1.7500875043752189,0.08145522987675072
1.7520876043802192,-0.0266461783456559
1.7540877043852194,-0.03467174815125957
1.7560878043902195,-0.05815022954058474
1.7580879043952198,0.02261774741189425
1.76008800440022,-0.0056541580709639485
1.7620881044052203,0.012569004487650668
1.7640882044102206,-0.008171052501467829
1.766088304415221,-0.010882633865536452
1.7680884044202212,-0.023066104484179367
1.7700885044252213,-0.008658282186744498
1.7720886044302215,-0.09320161272911573
1.7740887044352218,0.018459325513261123
1.776088804440222,-0.050906098593901494
1.7780889044452224,0.029509348661117808
1.7800890044502227,0.05641817488564618
1.7820891044552227,0.07641872004540436
1.784089204460223,-0.07219263400098648
1.7860893044652233,-0.006756939176252141
1.7880894044702236,0.06780316365200324
1.7900895044752239,0.09149872791240127
1.7920896044802241,0.08080557767197538
1.7940897044852244,0.018569132060429663
1.7960898044902245,0.0691267576916884
1.7980899044952248,-0.06311866745420314
1.800090004500225,-0.03834249955073126
1.8020901045052253,-0.0033959047378425778
1.8040902045102256,0.015360592432226833
1.806090304515226,0.065766748095178
1.8080904045202262,0.036604415757018
1.8100905045252262,-0.03433796258119676
1.8120906045302265,-0.08608930953674328
1.8140907045352268,-0.0506030080461434
1.816090804540227,0.03240559529977912
1.8180909045452274,-0.1324215049093684
1.8200910045502277,-0.003411230694616142
1.822091104555228,0.004449218153333876
1.824091204560228,-0.0012620719028584727
1.8260913045652283,0.00955634543382355
1.8280914045702286,0.0015219213953418448
1.8300915045752288,-0.006292865306331741
1.8320916045802291,0.008576642324356794
1.8340917045852294,-0.028656284133755934
1.8360918045902297,-0.036297768922312644
1.8380919045952298,0.05307259758326025
1.84009200460023,0.06952782976160342
1.8420921046052303,-0.011665702053095809
1.8440922046102306,-0.0219354120096309
1.8460923046152309,-0.060753141724312204
1.8480924046202312,-0.013600967639289828
1.8500925046252314,-0.02183084413620634
1.8520926046302315,-0.061750133472811344
1.8540927046352318,-0.012425739374602129
1.856092804640232,0.0341295286320479
1.8580929046452324,0.04043179614494601
1.8600930046502326,-0.11066436613500236
1.862093104655233,-0.0451739902276115
1.864093204660233,-0.048886838807430555
1.8660933046652333,0.022193133025869546
1.8680934046702335,-0.057302813093938115
1.8700935046752338,-0.08401042469927714
1.8720936046802341,-0.033882939542395116
1.8740937046852344,-0.019863702556691572
1.8760938046902347,-0.0696556527648714
1.8780939046952347,0.00975500447016274
1.880094004700235,0.1187164698706021
1.8820941047052353,-0.03714553008204882
1.8840942047102356,0.03293926023112649
1.8860943047152359,0.0018456404437588805
1.8880944047202362,-0.023315672339478635
1.8900945047252364,-0.026379200890759735
1.8920946047302365,0.011273954346190785
1.8940947047352368,-0.060971045827548656
1.896094804740237,-0.048864025954827556
1.8980949047452373,0.03149126249508124
1.9000950047502376,0.05610100879447506
1.902095104755238,-0.01989874715565235
1.9040952047602382,0.016635882520807256
1.9060953047652383,-0.08078130024211184
1.9080954047702385,-0.043232941506012965
1.9100955047752388,-0.026922003389085836
1.912095604780239,0.018870135073628596
1.9140957047852394,0.028415584505528314
1.9160958047902397,-0.01452996622629812
1.91809590479524,-0.0953187729481749
1.92009600480024,-0.011341789721954494
1.9220961048052403,0.13231364418758804
1.9240962048102406,0.033865075560262956
1.9260963048152409,0.019175010362054344
1.9280964048202411,0.018071798772069683
1.9300965048252414,0.04339453119929745
1.9320966048302415,0.024735690886132318
1.9340967048352418,0.04278522909681442
1.936096804840242,-0.03344501971051114
1.9380969048452423,0.0296802503767757
1.9400970048502426,-0.018879562047974682
1.942097104855243,-0.013823647851047434
1.9440972048602432,0.03248873870873111
1.9460973048652432,0.05746676640616009
1.9480974048702435,-0.0007011305644131388
1.9500975048752438,0.03291938938658819
1.952097604880244,-0.020661709959759543
1.9540977048852444,0.017681102348762617
1.9560978048902447,0.0019932243463857756
1.958097904895245,-0.029456861621565897
1.960098004900245,-0.022045344867688776
1.9620981049052453,-0.005835607454731441
1.9640982049102456,0.05490319856616051
1.9660983049152458,-0.04614488730175479
1.9680984049202461,0.05908703939172273
1.9700985049252464,0.028956206459536532
1.9720986049302467,-0.05539896347546987
1.9740987049352468,0.05000987639176903
1.976098804940247,-0.04752875026977709
1.9780989049452473,-0.05045042549799211
1.9800990049502476,0.05319896720689358
1.9820991049552479,-0.024133978292684693
1.9840992049602482,-0.0888341446333676
1.9860993049652484,-0.03608135974389101
1.9880994049702485,-0.03088323249190965
1.9900995049752488,-0.05055814326307265
1.992099604980249,-0.12447818963473874
1.9940997049852494,-0.02141079037907907
1.9960998049902496,0.01580037259549132
1.99809990499525,-0.045373946962989894
2.00010000500025,-0.08983007080481098
2.0021001050052503,0.0344219652459111
2.0041002050102508,-0.0044106333652711325
2.006100305015251,0.10567481959233148
2.008100405020251,-0.014691033469882087
2.0101005050252514,-0.045423323495349346
2.0121006050302515,0.011002881295810996
2.014100705035252,0.09334467836830058
2.016100805040252,-0.06951888966723843
2.0181009050452525,-0.009744700514974659
2.0201010050502526,0.04035369670080838
2.0221011050552526,0.04746962630042811
2.024101205060253,-0.01855788074762091
2.026101305065253,0.06488632453931102
2.0281014050702537,0.04615044125977681
2.0301015050752538,0.0021917910323656963
2.0321016050802543,-0.005766639360308094
2.0341017050852543,0.05831088196937331
2.0361018050902544,-0.017417576706586103
2.038101905095255,0.04290690147545987
2.040102005100255,-0.09786659478422144
2.0421021051052555,-0.02787100029444682
2.0441022051102555,-0.0146815768072827
2.046102305115256,-0.030648794540867014
2.048102405120256,0.017669083599537522
2.050102505125256,0.004401754862539891
2.0521026051302567,-0.046175975500593464
2.0541027051352567,0.008611347920661308
2.0561028051402572,-0.07905029042921907
2.0581029051452573,0.02952365963138407
2.060103005150258,0.09083060563856743
2.062103105155258,0.027088268686345392
2.064103205160258,0.0757226284463361
2.0661033051652584,-0.04829871507991365
2.0681034051702585,0.015984251148253997
2.070103505175259,-0.03156728939991307
2.072103605180259,-0.015095441249581879
2.0741037051852595,-0.009860626313326466
2.0761038051902596,-0.012642383798922184
2.0781039051952597,-0.018714220781276273
2.08010400520026,0.018820477330619662
2.0821041052052602,0.022537238259316483
2.0841042052102607,-0.04449483068011073
2.086104305215261,0.050878466914177814
2.0881044052202613,-0.04426957314692853
2.0901045052252614,0.019284210634277505
2.0921046052302614,-0.07162714754684756
2.094104705235262,0.05994516004672147
2.096104805240262,-0.07216223196709981
2.0981049052452625,-0.07505305815506932
2.1001050052502626,-0.008937702550256532
2.102105105255263,-0.05284868128128925
2.104105205260263,0.044657342392790095
2.106105305265263,0.06737580041647943
2.1081054052702637,-0.0026795708389219693
2.1101055052752637,-0.062104232424348586
2.1121056052802643,0.030574897820448584
2.1141057052852643,-0.03128637587388851
2.116105805290265,-0.03788885975788806
2.118105905295265,0.017501292780070607
2.120106005300265,0.03276471886492959
2.1221061053052654,-0.04090324169302475
2.1241062053102655,0.08025575881702311
2.126106305315266,-0.03498045585841447
2.128106405320266,-0.015568346634057699
2.130106505325266,0.0431817932983575
2.1321066053302666,0.06683003204730083
2.1341067053352667,-0.03947750058359725
2.136106805340267,-0.01542585142784361
2.1381069053452673,0.06092052821950619
2.1401070053502678,0.0986277340770631
2.142107105355268,0.0253387399743911
2.144107205360268,-0.013314711075006492
2.1461073053652684,0.03597052870955472
2.1481074053702685,-0.11020185503169166
2.150107505375269,-0.020375162266350222
2.152107605380269,0.028851119245977642
2.1541077053852695,-0.01994435171556458
2.1561078053902696,-0.008989955661084608
2.1581079053952696,-0.0035316750824999628
2.16010800540027,-0.056399009517423174
2.16210810540527,0.11271369607149968
2.1641082054102707,0.04654570922245216
2.1661083054152708,0.08356039559785876
2.1681084054202713,0.03860310045054985
2.1701085054252713,-0.010296388385234544
2.1721086054302714,-0.07455911659557254
2.174108705435272,0.002607095903854901
2.176108805440272,0.045356778797914714
2.1781089054452725,0.0106467884563958
2.1801090054502725,0.015633552671478895
2.182109105455273,0.10174600104529359
2.184109205460273,-0.06315399475144036
2.186109305465273,-0.01403404395178769
2.1881094054702737,0.040064463326048745
2.1901095054752737,-0.1020234162099411
2.1921096054802742,-7.8533725022036e-05
2.1941097054852743,0.07217715460423821
2.196109805490275,0.006470574997029646
2.198109905495275,-0.03503239036711509
2.200110005500275,0.0248947774861786
2.2021101055052754,0.10566165202942296
2.2041102055102755,-0.06217332710921573
2.206110305515276,-0.04668889571539794
2.208110405520276,0.017520275429561596
2.2101105055252765,-0.040998287152416865
2.2121106055302766,-0.11431802661984268
2.2141107055352767,-0.016940256316681983
2.216110805540277,0.06065523168957181
2.2181109055452772,0.045692938342994975
2.2201110055502777,0.030420378435128678
2.222111105555278,-0.0535358127719789
2.2241112055602783,-0.09250402469564725
2.2261113055652784,-0.05403727223786245
2.2281114055702784,0.048348771291553294
2.230111505575279,-0.050728192424444374
2.232111605580279,0.03121225557873646
2.2341117055852795,-0.006599640220774621
2.2361118055902796,0.028478132929921487
2.23811190559528,0.044452861261657976
2.24011200560028,0.07390784890828427
2.24211210560528,0.020470161573275497
2.2441122056102807,-0.07192703729145952
2.2461123056152807,-0.09327973976316813
2.2481124056202813,0.004866948885103284
2.2501125056252813,-0.021721858474962667
2.252112605630282,-0.006073338454692122
2.254112705635282,0.04487178376651813
2.256112805640282,0.04320383385792825
2.2581129056452824,0.055758650482555794
2.2601130056502825,0.015275068235772946
2.262113105655283,-0.02895268144119183
2.264113205660283,-0.01204801493163389
2.2661133056652836,-0.016030393254136282
2.2681134056702836,-0.015038710546727391
2.2701135056752837,-0.025514320848430694
2.272113605680284,0.015353967503668249
2.2741137056852843,0.023079603447756794
2.2761138056902848,-0.02965771874847097
2.278113905695285,-0.06071293367660822
2.2801140057002853,0.01821706561647538
2.2821141057052854,-0.029733024778037766
2.2841142057102855,-0.06634779486446332
2.286114305715286,-0.009456262456302052
2.288114405720286,-0.0008008501388303709
2.2901145057252865,-0.0318559208120248
2.2921146057302866,0.008821741006997837
2.2941147057352866,0.03762633371861169
2.296114805740287,0.03106900044021962
2.298114905745287,0.09631535124682154
2.3001150057502877,0.019646785897311836
2.3021151057552878,0.02828759486786019
2.3041152057602883,0.01667751151070272
2.3061153057652883,0.011522585192607245
2.3081154057702884,-0.01463301444609886
2.310115505775289,-0.033605154449951984
2.312115605780289,0.03414137267517914
2.3141157057852895,-0.04986397874256607
2.3161158057902895,-0.10980768249844586
2.31811590579529,0.0718288491288291
2.32011600580029,-0.06310320595273776
2.32211610580529,-0.030156600036834177
2.3241162058102907,-0.03009596220318287
2.3261163058152907,-0.07055359509635488
2.3281164058202912,-0.037160652669225615
2.3301165058252913,-0.0638903609566293
2.332116605830292,0.002637505378639722
2.334116705835292,0.01899356481406063
2.336116805840292,-0.02026476638641475
2.3381169058452924,-0.016339442368208067
2.3401170058502925,0.00972687371612646
2.342117105855293,0.07661463148770331
2.344117205860293,0.007080239008040163
2.3461173058652935,0.031066973090915242
2.3481174058702936,0.03419256555788579
2.3501175058752937,-0.05815186008980494
2.352117605880294,-0.005107677996856179
2.3541177058852942,0.013927217094813671
2.3561178058902947,-0.055961837189086296
2.358117905895295,0.10461291368538456
2.3601180059002953,0.059403883308621154
2.3621181059052954,-0.023353903674287687
2.3641182059102954,-0.05030768998174876
2.366118305915296,-0.07176222951097569
2.368118405920296,0.04192438962819879
2.3701185059252965,-0.07123292089918697
2.3721186059302966,-0.019966631017065743
2.374118705935297,0.015306645791449759
2.376118805940297,0.039470931315484604
2.378118905945297,0.05414718771648196
2.3801190059502977,0.04582047645641285
2.3821191059552977,-0.002341895108559177
2.3841192059602982,0.0661432025789033
2.3861193059652983,-0.1060200389684821
2.388119405970299,-0.04915778689681526
2.390119505975299,0.07801468070111524
2.392119605980299,-0.005341708541393076
2.3941197059852994,-0.06274533696820021
2.3961198059902995,0.04471312746220418
2.3981199059953,0.02356003549420069
2.4001200060003,-0.073144630212852
2.4021201060053006,-0.05168771669153686
2.4041202060103006,-0.02160565781377506
2.4061203060153007,-0.04757854108186362
2.408120406020301,0.11692562157216875
2.4101205060253013,-0.02216638831376513
2.4121206060303018,-0.07656962391165675
2.414120706035302,-0.003972351259381569
2.4161208060403023,-0.029453162246174308
2.4181209060453024,0.10776966503902369
2.4201210060503024,-0.0003215292848040986
2.422121106055303,-0.02142136929463015
2.424121206060303,-0.012563002358451517
2.4261213060653035,-0.026277412132517233
2.4281214060703036,-0.007935152920589153
2.430121506075304,-0.0961116688501659
2.432121606080304,0.018745228250938887
2.434121706085304,0.012979340733272613
2.4361218060903047,0.0381584768215336
2.4381219060953048,-0.09352787483318442
2.4401220061003053,0.057305498224880624
2.4421221061053053,-0.037337241221935616
2.4441222061103054,-0.01960524908560122
2.446122306115306,0.04524068829375067
2.448122406120306,-0.03651757844709725
2.4501225061253065,-0.02613562379381852
2.4521226061303065,-0.040589557080372256
2.454122706135307,0.038827600681779796
2.456122806140307,0.030384744553961757
2.458122906145307,0.1890519878056921
2.4601230061503077,0.041430393857240545
2.4621231061553077,0.006471406992539336
2.464123206160308,0.012419185648637641
2.4661233061653083,-0.02266139426723018
2.468123406170309,0.057577478030596166
2.470123506175309,-0.022946460532751463
2.472123606180309,-0.018492050830690786
2.4741237061853094,-0.016707328653759995
2.4761238061903095,-0.031154758542483698
2.47812390619531,0.025821451506893807
2.48012400620031,0.11448694834236886
2.4821241062053105,-0.00386574066694495
2.4841242062103106,-0.04090862419819438
2.4861243062153107,-0.006400611063485955
2.488124406220311,-0.03829915975765398
2.4901245062253112,0.010344969169569646
2.4921246062303117,-0.047159954649178715
2.494124706235312,-0.06774752117199233
2.4961248062403123,-0.07751717321675428
2.4981249062453124,-0.018598853478705723
2.5001250062503124,-0.09033594750292881
2.502125106255313,0.027128059644435727
2.504125206260313,0.03754017510453488
2.5061253062653135,-0.036236141324847836
2.5081254062703136,0.0023279172202034268
2.510125506275314,0.10888828963620988
2.512125606280314,-0.09358491886317977
2.514125706285314,-0.046745678316877794
2.5161258062903147,-0.08187491259497878
2.5181259062953147,0.03372027248800794
2.5201260063003152,-0.04182176038684849
2.5221261063053153,0.040490441347845664
2.524126206310316,0.0022556154866178115
2.526126306315316,-0.028582713249675484
2.528126406320316,-0.03195074926672674
2.5301265063253164,-0.0746796787308888
2.5321266063303165,0.003704089974532588
2.534126706335317,0.0033095075340504893
2.536126806340317,-0.0013263875230120773
2.5381269063453176,-0.00539354021660694
2.5401270063503176,-0.03340167685029065
2.5421271063553177,-0.013590471327357613
2.544127206360318,0.026965178194557394
2.5461273063653183,0.06256869500363242
2.5481274063703188,0.043587387505580534
2.550127506375319,-0.041490349962024387
2.5521276063803193,0.010124089198379286
2.5541277063853194,0.04241431595244233
2.5561278063903194,-0.019391928342285623
2.55812790639532,-0.07061133551131453
2.56012800640032,0.06635600494306199
2.5621281064053205,0.012818949633618626
2.5641282064103206,0.05891095051334209
2.566128306415321,-0.03449457262714276
2.568128406420321,-0.01673805921132959
2.570128506425321,0.008163279804017506
2.5721286064303217,0.03131754993339242
2.5741287064353218,0.014401769299181126
2.5761288064403223,0.021330273220956746
2.5781289064453223,-0.03638174595294006
2.580129006450323,-0.01141040013485026
2.582129106455323,0.006363496245009439
2.584129206460323,-0.03617758151006708
2.5861293064653235,0.022521363247484168
2.5881294064703235,0.03608309119873952
2.590129506475324,-0.07751811476596907
2.592129606480324,-0.024021040308908344
2.5941297064853246,-0.025962535630984936
2.5961298064903247,0.040584566913914176
2.5981299064953247,-0.05721917401642165
2.600130006500325,0.04754376230744935
2.6021301065053253,0.03566417071613602
2.604130206510326,-0.07900562634978095
2.606130306515326,0.10889286501500227
2.608130406520326,-0.03841990025879051
2.6101305065253264,-0.11156833623254386
2.6121306065303265,0.010845105836888419
2.614130706535327,-0.05668690623885604
2.616130806540327,0.018057619925097225
2.6181309065453275,0.06053230480130911
2.6201310065503276,0.035432907665557185
2.6221311065553277,-0.03277697577779848
2.624131206560328,-0.026086479220574943
2.6261313065653282,-0.039618051495628144
2.6281314065703287,-0.026807571014976606
2.630131506575329,-0.0704559734401522
2.6321316065803293,-0.05189827712620631
2.6341317065853294,0.004502732736449813
2.6361318065903294,-0.04850432085751226
2.63813190659533,-0.09777013976562028
2.64013200660033,-0.01794767344778727
2.6421321066053305,-0.0016733452200185933
2.6441322066103305,0.06508146147236454
2.646132306615331,0.025386953653108547
2.648132406620331,-0.011110081898548792
2.650132506625331,-0.01610565892202832
2.6521326066303317,-0.01374268401067087
2.6541327066353317,0.01242976172734871
2.6561328066403322,-0.09196660058171222
2.6581329066453323,-0.03926712962106267
2.660133006650333,0.005801925918361503
2.662133106655333,-0.05922440411159946
2.664133206660333,0.023554627245746425
2.6661333066653334,0.011073910883998438
2.6681334066703335,0.0070000377792893255
2.670133506675334,-0.030083155463578995
2.672133606680334,-0.06075672884214476
2.6741337066853346,0.07278218427032855
2.6761338066903346,-0.013151732266612513
2.6781339066953347,-0.0147804441809835
2.680134006700335,0.01380771386036108
2.6821341067053353,-0.035346894066450266
2.6841342067103358,0.06518895513678553
2.686134306715336,0.06915843120890203
2.6881344067203363,0.008019933467336414
2.6901345067253364,-0.024076738452860392
2.6921346067303364,-0.036679869886582
2.694134706735337,-0.015119073222668032
2.696134806740337,0.06402888625424603
2.6981349067453375,0.03898572387431676
2.7001350067503376,0.004532712792741678
2.702135106755338,-0.1255911383746533
2.704135206760338,0.04385733939065815
2.706135306765338,0.04572177679074675
2.7081354067703387,0.025153317159009647
2.7101355067753388,0.08575080876345367
2.7121356067803393,-0.08419322488957148
2.7141357067853393,0.07434658824325306
2.71613580679034,0.01125253423603532
2.71813590679534,0.08368678041791362
2.72013600680034,0.05313603006025576
2.7221361068053405,-0.05092807370338113
2.7241362068103405,0.0603470220906611
2.726136306815341,0.06359088255551941
2.728136406820341,0.18855689393373648
2.7301365068253416,0.10355303948861445
2.7321366068303417,0.07668115448897478
2.7341367068353417,0.06215727739079585
2.736136806840342,-0.018204381854464893
2.7381369068453423,-0.03915349043987795
2.740137006850343,0.029567014477652687
2.742137106855343,-0.09454722791214235
2.7441372068603433,0.030238085192079153
2.7461373068653434,-0.06674206873261122
2.7481374068703435,-0.48518723313777873
2.750137506875344,-0.051470203226539994
2.752137606880344,0.022823730283935303
2.7541377068853445,-0.10791495961090257
2.7561378068903446,0.050164662633620655
2.7581379068953447,1.469688973100933
2.760138006900345,0.08878227462046329
2.7621381069053452,-0.05790523043788912
2.7641382069103457,-0.021501584187687495
2.766138306915346,-0.013290724098867602
2.7681384069203463,-0.3464573601222774
2.7701385069253464,-0.05623544336981739
2.7721386069303464,0.03716315889552359
2.774138706935347,0.02000477090206698
2.776138806940347,-0.0018862171598784925
2.7781389069453475,-0.041687576872712385
2.7801390069503475,-0.0587919322600347
2.782139106955348,-0.08531679918367009
2.784139206960348,-0.0347031697280084
2.786139306965348,0.016067279470442616
2.7881394069703487,0.36732322641558934
2.7901395069753487,0.02633771414608036
2.7921396069803492,-0.033968290761982205
2.7941397069853493,-0.03200101263598308
2.79613980699035,0.025660015674504367
2.79813990699535,-0.03682504767144659
2.80014000700035,0.10195547769286811
2.8021401070053504,-0.026072489604155397
2.8041402070103505,0.06842643848125911
2.806140307015351,-0.10334080647653328
2.808140407020351,-0.009711553895860104
2.8101405070253516,-0.001722942136809565
2.8121406070303516,0.043162056327357756
2.8141407070353517,-0.01022196632731792
2.816140807040352,-0.01087191116101686
2.8181409070453523,0.017645220811649466
2.8201410070503528,-0.04483894642461706
2.822141107055353,0.034659251400185796
2.8241412070603533,-0.08969918005665067
2.8261413070653534,-0.040732650436709504
2.8281414070703534,0.0191943972019528
2.830141507075354,-0.05551914505516686
2.832141607080354,0.013575176528464792
2.8341417070853545,0.04374234036573555
2.8361418070903546,0.000650137552160901
2.838141907095355,0.06370478076621477
2.840142007100355,-0.004964356676788312
2.842142107105355,0.032728279407353796
2.8441422071103557,-0.0011376839488400025
2.8461423071153558,0.016290109863016374
2.8481424071203563,-0.006878837851048873
2.8501425071253563,0.03529609830611577
2.852142607130357,-0.05031426147716085
2.854142707135357,-0.016114007584735853
2.856142807140357,0.05944197381140287
2.8581429071453575,0.04464019162654448
2.8601430071503575,0.05357404988514383
2.862143107155358,-0.06637076244423469
2.864143207160358,-0.029492252428885993
2.8661433071653586,-0.0028803177135909882
2.8681434071703586,0.07349937219207639
2.8701435071753587,0.09854344598039969
2.872143607180359,0.16053077513614789
2.8741437071853593,-0.014422970496012986
2.87614380719036,0.04125122794391484
2.87814390719536,-0.07672067407014399
2.8801440072003603,-0.053296364450083844
2.8821441072053604,0.018683156818686517
2.8841442072103605,-0.05655594306194178
2.886144307215361,0.01336676555206573
2.888144407220361,0.033935950214503637
2.8901445072253615,0.06214646042444414
2.8921446072303616,-0.05933232691629858
2.894144707235362,0.048562705638282
2.896144807240362,-0.04820170969385734
2.8981449072453622,-0.0688656462454457
2.9001450072503627,-0.010238316537605784
2.902145107255363,-0.0649925884540075
2.9041452072603633,0.009333552198332571
2.9061453072653634,0.004877327961394872
2.908145407270364,-0.04866662419332771
2.910145507275364,0.06416992667024853
2.912145607280364,-0.023264908575297547
2.9141457072853645,-0.03969524589055068
2.9161458072903645,-0.06960868848550947
2.918145907295365,0.042399941692692594
2.920146007300365,0.017320185826199527
2.922146107305365,-0.021023297496826833
2.9241462073103657,-0.03935327180048185
2.9261463073153657,0.045753242216746925
2.9281464073203662,0.00733680406704504
2.9301465073253663,-0.04830150790527392
2.932146607330367,0.0002461369679548684
2.934146707335367,-0.013167074626348066
2.936146807340367,-0.027855159593038487
2.9381469073453674,0.01829404694173072
2.9401470073503675,0.03561344761253213
2.942147107355368,0.016795454476439656
2.944147207360368,0.05255328870927768
2.9461473073653686,0.045385752157634934
2.9481474073703686,-0.05286499817157036
2.9501475073753687,-0.004335740806553028
2.952147607380369,0.07646673196374802
2.9541477073853692,-0.05359930297390103
2.9561478073903698,0.049675335350267275
2.95814790739537,-0.07094686114822278
2.9601480074003703,0.007951128138838397
2.9621481074053704,-0.09401829645534024
2.9641482074103704,0.04687425408641189
2.966148307415371,-0.04006101175453492
2.968148407420371,0.013342742413038065
2.9701485074253715,0.0767331831994058
2.9721486074303716,-0.07978012415553462
2.974148707435372,-0.10210484825294111
2.976148807440372,-0.005823912875498851
2.978148907445372,-0.02421400897066247
2.9801490074503727,-0.018524826366150646
2.9821491074553728,-0.06294112136950429
2.9841492074603733,0.09767953801791418
2.9861493074653733,-0.0045015844356971575
2.988149407470374,0.008922802897512844
2.990149507475374,0.02291747384127441
2.992149607480374,-0.002047937117048887
2.9941497074853745,-0.026513776210247336
2.9961498074903745,0.017083682165188307
2.998149907495375,-0.05847645217175984
3.000150007500375,-0.06407576526773946
3.0021501075053756,0.04417147238521771
3.0041502075103756,0.00044769748726701465
3.0061503075153757,-0.06944625286574795
3.008150407520376,-0.054712216928485435
3.0101505075253763,0.032392530726530866
3.012150607530377,-0.034370465630441986
3.014150707535377,0.034258731156979055
3.0161508075403773,0.05799477922899542
3.0181509075453774,0.007263369499153834
3.0201510075503775,0.009820477311343528
3.022151107555378,-0.01688722375434262
3.024151207560378,-0.06012223111947852
3.0261513075653785,-0.01896179646373159
3.0281514075703786,0.029949979675276697
3.030151507575379,-0.0071915057446302515
3.032151607580379,0.02029005229515038
3.034151707585379,-0.030114128055924984
3.0361518075903797,0.07854956570969676
3.03815190759538,0.013717089824776665
3.0401520076003803,0.07562599356344825
3.0421521076053804,-0.06272354751217167
3.044152207610381,-0.030550177357314464
3.046152307615381,0.051506619727054226
3.048152407620381,0.0042445811733001805
3.0501525076253815,-0.039161627905383425
3.0521526076303815,0.022295144828766253
3.054152707635382,0.003063489008808556
3.056152807640382,-0.04386897628914183
3.0581529076453826,-0.042938990550365264
3.0601530076503827,0.014424506824269026
3.0621531076553827,0.04067892898132295
3.0641532076603832,0.05062169352463639
3.0661533076653833,0.007286689985181844
3.068153407670384,-0.05168040472169965
3.070153507675384,0.06259002505777188
3.0721536076803844,0.011918722937889776
3.0741537076853844,0.023561619349641384
3.0761538076903845,0.10215436293762913
3.078153907695385,0.11088401353629188
3.080154007700385,-0.029312824931427353
3.0821541077053856,-0.03163926078363456
3.0841542077103856,0.023337854320501415
3.0861543077153857,-0.09278140741109489
3.088154407720386,-0.011324870363628234
3.0901545077253862,0.011146282903031142
3.0921546077303868,-0.024044809573895973
3.094154707735387,0.03512383157272144
3.0961548077403873,0.08151794267054148
3.0981549077453874,0.06770023440354875
3.1001550077503874,0.045345201265065534
3.102155107755388,-0.005354118639654836
3.104155207760388,0.027712042985507453
3.1061553077653885,0.08364308808912929
3.1081554077703886,-0.0789606780608245
3.110155507775389,0.060500882212503916
3.112155607780389,-0.029844659054518538
3.114155707785389,0.028540315506627306
3.1161558077903897,0.054051181001546725
3.1181559077953898,0.023610479248996303
3.1201560078003903,-0.06531973677521523
3.1221561078053903,0.027969090917714403
3.124156207810391,-0.01627970346075301
3.126156307815391,0.027735473894778175
3.128156407820391,0.02442579247619861
3.1301565078253915,0.0078040003252464706
3.1321566078303915,-0.04452821820339057
3.134156707835392,-0.10392837443641881
3.136156807840392,0.006872594860650747
3.1381569078453926,-0.0260255142939958
3.1401570078503926,0.06831388507146674
3.1421571078553927,0.0559973753032717
3.144157207860393,-0.019598522847302766
3.1461573078653933,-0.0033219375163259512
3.1481574078703938,-0.016518475904914082
3.150157507875394,-0.01874534995946737
3.1521576078803943,-0.005353175210728633
3.1541577078853944,-0.06376176504412655
3.1561578078903945,-0.021846285267019643
3.158157907895395,-0.06842722867353422
3.160158007900395,0.018393031233218525
3.1621581079053955,0.0454350228658844
3.1641582079103956,-0.04736448710260323
3.166158307915396,0.028422524507288573
3.168158407920396,-0.07099689418386558
3.170158507925396,0.017771657994925232
3.1721586079303967,0.023804163420692463
3.174158707935397,0.03937245436634005
3.1761588079403973,-0.021924983452488847
3.1781589079453973,0.059176894868584365
3.180159007950398,0.027071584606853435
3.182159107955398,0.01180115817281601
3.184159207960398,-0.006062791412534476
3.1861593079653985,0.051171077062594286
3.1881594079703985,-0.004013183677526146
3.190159507975399,-0.01875371701597483
3.192159607980399,0.03194728584078093
3.1941597079853996,0.05111283177385156
3.1961598079903997,-0.0026364943964137465
3.1981599079953997,0.009396063242115133
3.2001600080004002,-0.0006520150416207475
3.2021601080054003,0.011543406276673098
3.204160208010401,0.028708326112740462
3.206160308015401,0.0884733560537945
3.2081604080204014,0.005331347877306901
3.2101605080254014,-0.000861753860036122
3.2121606080304015,-0.12119519522777689
3.214160708035402,0.0221192333394702
3.216160808040402,-0.010004997120018243
3.2181609080454026,-0.026613656377305995
3.2201610080504026,0.01625921802352413
3.222161108055403,-0.050356657381008155
3.224161208060403,0.012947688623669401
3.2261613080654032,0.0611201398853576
3.2281614080704037,-0.02079442060621433
3.230161508075404,0.00563218514490204
3.2321616080804043,-0.03324506705317656
3.2341617080854044,0.013099349178920151
3.2361618080904044,-0.06411600919587142
3.238161908095405,-0.04222363513714543
3.240162008100405,-0.053103265944363334
3.2421621081054055,-0.07431133600792368
3.2441622081104056,0.02598680067596866
3.246162308115406,0.056744774066640316
3.248162408120406,0.030761215838245884
3.250162508125406,0.04240842879098586
3.2521626081304067,0.030989404265514355
3.2541627081354068,0.11861816104376176
3.2561628081404073,-0.05703372548898536
3.2581629081454073,-0.03809741784309592
3.260163008150408,0.01773457696835378
3.262163108155408,-0.029231459457357514
3.264163208160408,0.06300901702236576
3.2661633081654085,0.05229506835560475
3.2681634081704085,0.03752455838217052
3.270163508175409,0.11335585035313032
3.272163608180409,0.08712312721101913
3.2741637081854096,0.028119105049582777
3.2761638081904096,0.04134956737839321
3.2781639081954097,0.018627531737207288
3.28016400820041,0.09360641882935712
3.2821641082054103,-0.0586006111460944
3.2841642082104108,-0.024222594228872425
3.286164308215411,0.035389296167575676
3.2881644082204113,-0.06427281220126335
3.2901645082254114,0.0038948583894452236
3.2921646082304115,-0.09122408819499997
3.294164708235412,-0.07836044422220795
3.296164808240412,-0.02337880315142437
3.2981649082454125,-0.022586362191521936
3.3001650082504126,0.03179387122481041
3.302165108255413,-0.014346024218251568
3.304165208260413,0.07550880454522241
3.306165308265413,0.02477362462146168
3.3081654082704137,-0.015032192250448754
3.310165508275414,0.07526353494470979
3.3121656082804143,-0.037931073059547724
3.3141657082854143,0.010724435307937588
3.316165808290415,0.00020498994038950104
3.318165908295415,-0.06253394892722337
3.320166008300415,0.013441389700711024
3.3221661083054155,0.03294677992089591
3.3241662083104155,-0.054309328544843376
3.326166308315416,0.05022609301447787
3.328166408320416,0.055739825984811545
3.3301665083254166,0.05502563652157297
3.3321666083304167,0.04258611498773573
3.3341667083354167,-0.06674434235703562
3.3361668083404172,-0.11087719843590366
3.3381669083454173,-0.04065779135228507
3.340167008350418,0.005845356619983529
3.342167108355418,0.037667495349363034
3.3441672083604184,0.049287714430218725
3.3461673083654184,-0.043852225222322926
3.3481674083704185,0.003872427068162599
3.350167508375419,-0.08033801939810264
3.352167608380419,-0.03748923389706276
3.3541677083854196,-0.0029080670351412084
3.3561678083904196,0.010708889692676724
3.35816790839542,-0.022746177183966022
3.36016800840042,-0.033461103278978464
3.3621681084054202,0.030302059938388522
3.3641682084104207,-0.023178941679997622
3.366168308415421,-0.013866533473338048
3.3681684084204213,-0.0921620863331481
3.3701685084254214,-0.06332736978518652
3.372168608430422,-0.11642564424477285
3.374168708435422,-0.007532973498584707
3.376168808440422,0.015034866960353728
3.3781689084454225,0.10080859210526193
3.3801690084504226,0.03403657376522389
3.382169108455423,-0.046280523058368314
3.384169208460423,-0.049358616784245225
3.3861693084654236,0.047818501798522976
3.3881694084704237,-0.03551217872329323
3.3901695084754238,0.16292419620931325
3.3921696084804243,-0.023138765756733855
3.3941697084854243,-0.02066562867308021
3.396169808490425,0.036022813680133006
3.398169908495425,-0.022308664665054125
3.400170008500425,0.017994156757424152
3.4021701085054254,0.05734809246956372
3.4041702085104255,-0.07095607860603546
3.406170308515426,-0.039563501992989254
3.408170408520426,0.061958900663818234
3.4101705085254266,-0.0014722425186651491
3.4121706085304266,0.1380765197841623
3.4141707085354267,0.020539902897325414
3.416170808540427,0.044589625788072844
3.4181709085454273,-0.10471923471898176
3.4201710085504278,-0.012323195098369375
3.422171108555428,-0.04305823141035697
3.4241712085604283,0.016455086936969437
3.4261713085654284,0.03283492497586581
3.4281714085704285,-0.0043328170503573946
3.430171508575429,0.08799590888248507
3.432171608580429,-0.048839833197336716
3.4341717085854295,0.0195964136814668
3.4361718085904296,0.06464405098054042
3.43817190859543,-0.042305968796335
3.44017200860043,0.006807668915074609
3.44217210860543,0.010854255374879121
3.4441722086104307,0.00990696766017992
3.446172308615431,0.05555885160834041
3.4481724086204313,0.04554643426106289
3.4501725086254313,0.002277022728736407
3.452172608630432,-0.061537353313598775
3.454172708635432,-0.05484926412678838
3.456172808640432,-0.043176519392118064
3.4581729086454325,-0.03318296796922295
3.4601730086504325,0.001297421762367619
3.462173108655433,0.025721126908932752
3.464173208660433,0.01448030646616576
3.4661733086654336,0.11408584728621947
3.4681734086704337,-0.08009771330497055
3.4701735086754337,0.011445486314146951
3.4721736086804342,-0.13897896261475315
3.4741737086854343,-0.03738768928990572
3.476173808690435,0.07288466861467348
3.478173908695435,0.06404602640635142
3.4801740087004354,-0.01989330767933081
3.4821741087054354,0.03406459713748909
3.4841742087104355,-0.016092260877765448
3.486174308715436,-0.005136158164284168
3.488174408720436,0.0520131391792923
3.4901745087254366,0.053830417981600424
3.4921746087304366,-0.02266615972134986
3.494174708735437,0.019007820105995523
3.496174808740437,-0.06642307863660957
3.4981749087454372,-0.05663501755001461
3.5001750087504377,0.06683472375649684
3.502175108755438,-0.011994964636417686
3.5041752087604383,-0.04442013503748707
3.5061753087654384,0.05779373388600617
3.508175408770439,0.04952766688483004
3.510175508775439,-0.004692213247649864
3.512175608780439,-0.03539467740613091
3.5141757087854395,0.08432246919612124
3.5161758087904396,0.012517614311997341
3.51817590879544,-0.017224820609023587
3.52017600880044,0.05841776413726915
3.5221761088054406,-0.022531473897470785
3.5241762088104407,-0.05048419903635043
3.5261763088154408,-0.00039692147765068995
3.5281764088204413,-0.004781646240053859
3.5301765088254413,-0.017464818744603507
3.532176608830442,-0.014488637823776433
3.534176708835442,0.02090200684448248
3.5361768088404424,0.06232182286597063
3.5381769088454424,-0.018463255343302627
3.5401770088504425,-0.04383464103695925
3.542177108855443,0.018829401972028405
3.544177208860443,0.044029211421822395
3.5461773088654436,0.08075146128786687
3.5481774088704436,-0.04588324698606113
3.5501775088754437,-0.08309183728289947
3.552177608880444,-0.07494115173921305
3.5541777088854443,-0.11897271202717428
3.5561778088904448,-0.0050793887184136435
3.558177908895445,-0.008659422424201991
3.5601780089004453,0.0025894438340112493
3.5621781089054454,0.023255128409641987
3.5641782089104455,-0.05285726648775973
3.566178308915446,0.06984094017774335
3.568178408920446,0.03625030113874011
3.5701785089254465,-0.05161238545523721
3.5721786089304466,-0.04162504947167148
3.574178708935447,-0.023716762752445164
3.576178808940447,-0.014389941616937378
3.578178908945447,-0.002206105276539007
3.5801790089504477,0.0349740430304831
3.5821791089554478,-0.05389748536878061
3.5841792089604483,-0.021136547156750302
3.5861793089654483,-0.11169003600046806
3.588179408970449,-0.033714373694270765
3.590179508975449,0.11215824341581311
3.592179608980449,-0.011313749544967866
3.5941797089854495,0.10544480199636633
3.5961798089904495,-0.025891731655293973
3.59817990899545,0.03809152248023096
3.60018000900045,0.07224901688560652
3.6021801090054506,0.012493032120649844
3.6041802090104507,0.028595616037225036
3.6061803090154507,-0.037328900528029
3.6081804090204512,-0.05947493337724189
3.6101805090254513,-0.05768108898639679
3.612180609030452,0.008799758119759861
3.614180709035452,0.0030059927447865743
3.6161808090404524,-0.019992802058183053
3.6181809090454524,0.05241660706513719
3.6201810090504525,0.027227826002107727
3.622181109055453,-0.04257884681175314
3.624181209060453,-0.0657852843107859
3.6261813090654536,0.032895177820937885
3.6281814090704536,0.08763410490403505
3.630181509075454,-0.002682204381271677
3.632181609080454,0.02071709595316102
3.6341817090854542,0.04042166958287982
3.6361818090904547,-0.053016773142746325
3.638181909095455,0.09519855401184768
3.6401820091004553,0.02350177972062522
3.6421821091054554,0.07751577995450998
3.644182209110456,-0.014436063705656574
3.646182309115456,0.006725821245173801
3.648182409120456,-0.01208873754818552
3.6501825091254565,-0.13336860232946293
3.6521826091304566,-0.010920504087505913
3.654182709135457,-0.04226948923441212
3.656182809140457,0.01102531370028919
3.6581829091454576,0.013806809559915204
3.6601830091504577,-0.03520689049260079
3.6621831091554577,-0.018098123721688005
3.6641832091604583,0.020786397132416982
3.6661833091654583,-0.0036970252373994847
3.668183409170459,0.030591254090659534
3.670183509175459,-0.01585203751204007
3.6721836091804594,-0.006198322875769212
3.6741837091854594,-0.007218251792618049
3.6761838091904595,-0.015489829275116135
3.67818390919546,0.03416744566233582
3.68018400920046,-0.1618822268335394
3.6821841092054606,0.0722995830853168
3.6841842092104606,-0.0344296293310038
3.686184309215461,-0.018455533401346005
3.688184409220461,-0.00862984472487694
3.6901845092254613,0.04825513465411098
3.6921846092304618,-0.04242713945016859
3.694184709235462,-0.007200571443729713
3.6961848092404623,-0.003632632405239008
3.6981849092454624,0.049246839644853393
3.700185009250463,-0.02573133761609178
3.702185109255463,0.04998143743676681
3.704185209260463,0.007112885626231011
3.7061853092654635,-0.022025743589718972
3.7081854092704636,-0.019757595078128288
3.710185509275464,0.008165632020468513
3.712185609280464,0.008795455177409523
3.714185709285464,-0.020113482013847817
3.7161858092904647,0.04696191287026889
3.7181859092954648,0.01848813130688753
3.7201860093004653,0.09151763511545086
3.7221861093054653,-0.052116563250178716
3.724186209310466,0.03208609005163964
3.726186309315466,0.054231626400930315
3.728186409320466,-0.0036241450815781596
3.7301865093254665,0.08762802685067944
3.7321866093304665,-0.03817313020197499
3.734186709335467,0.006371798440748099
3.736186809340467,0.025452520277987545
3.7381869093454676,-0.038302518191934025
3.7401870093504677,-0.09902052752036533
3.7421871093554677,0.010938074893080343
3.7441872093604682,-0.008899044611099383
3.7461873093654683,-0.02759062105551363
3.748187409370469,0.015438403064894947
3.750187509375469,-0.02827084271497748
3.7521876093804694,0.006994915265775889
3.7541877093854694,-0.05986623575883825
3.7561878093904695,0.06767071175270617
3.75818790939547,0.0121822796209047
3.76018800940047,-0.008215035668084115
3.7621881094054705,0.05744042389331763
3.7641882094104706,-0.018831270648960778
3.766188309415471,0.009501430181613958
3.768188409420471,0.021289930656067827
3.7701885094254712,0.033842395490893955
3.7721886094304717,0.0627971981737117
3.774188709435472,-0.004573331961106289
3.7761888094404723,0.0022481857232561947
3.7781889094454724,-0.03556014131899345
3.780189009450473,0.016710154371235155
3.782189109455473,0.014351539296820898
3.784189209460473,-0.03345469779492771
3.7861893094654735,-0.027600140275001406
3.7881894094704736,0.06216114853567274
3.790189509475474,0.026319715289069085
3.792189609480474,0.06499432146848602
3.7941897094854746,-0.05286046410640295
3.7961898094904747,0.031712251073258486
3.7981899094954747,-0.018576076046379047
3.8001900095004753,-0.023033167851787967
3.8021901095054753,-0.09115613787630145
3.804190209510476,0.13814850061381884
3.806190309515476,0.06066244075262298
3.8081904095204764,0.004303044927433226
3.8101905095254764,0.05552065090936229
3.8121906095304765,0.11102517344273043
3.814190709535477,-0.03256256159208665
3.816190809540477,0.002372639286196495
3.8181909095454776,-0.013096949783843357
3.8201910095504776,-0.027769121616222206
3.822191109555478,-0.033133387707978586
3.824191209560478,-0.029530101721172
3.8261913095654783,-0.05058840665725578
3.8281914095704788,0.038299810918783386
3.830191509575479,0.06000090931441693
3.8321916095804793,0.03271511440808639
3.8341917095854794,0.1479608645874155
3.83619180959048,-0.040350031919814365
3.83819190959548,0.06358826163274932
3.84019200960048,0.009173009289041318
3.8421921096054805,-0.01128231753890481
3.8441922096104806,-0.017502115764124013
3.846192309615481,0.07403899966577408
3.848192409620481,-0.027473987867243373
3.8501925096254817,0.006044902769563474
3.8521926096304817,0.07542680014545373
3.8541927096354818,-0.037785986769623796
3.8561928096404823,0.059665653719001024
3.8581929096454823,-0.04860557769427383
3.860193009650483,-0.016146859457955104
3.862193109655483,-0.09622338974713751
3.864193209660483,-0.046533319886998596
3.8661933096654835,-0.004392471873001951
3.8681934096704835,0.046029766025741735
3.870193509675484,0.004619213133255491
3.872193609680484,-0.06753143851943731
3.8741937096854846,0.07985776281549095
3.8761938096904847,0.013728666525686021
3.8781939096954847,-0.061086891923262034
3.8801940097004852,0.03383407194626236
3.8821941097054853,-0.05701896777717356
3.884194209710486,-0.058355497080122054
3.886194309715486,-0.031761397424096435
3.8881944097204864,0.023559061333153056
3.8901945097254864,0.033222886915465356
3.8921946097304865,-0.08953190391806504
3.894194709735487,0.03697801156566179
3.896194809740487,-0.07585200568743414
3.8981949097454875,0.022797348700041034
3.9001950097504876,-0.0016433108486185477
3.902195109755488,-0.07109625446569534
3.904195209760488,-0.0014270625218472549
3.9061953097654882,-0.0273168797149029
3.9081954097704887,-0.01664264067468013
3.910195509775489,0.0753198516369854
3.9121956097804893,-0.024972729162051874
3.9141957097854894,0.013831142764906086
3.91619580979049,-0.03346054900071526
3.91819590979549,0.04187466932112815
3.92019600980049,0.022697749577533857
3.9221961098054905,0.054200940716540004
3.9241962098104906,0.01882192816000103
3.926196309815491,0.02166612021240951
3.928196409820491,0.06953331388065832
3.9301965098254916,-0.11696419990013379
3.9321966098304917,0.05123980561635423
3.9341967098354917,-0.012606919666106067
3.9361968098404923,0.022159050539749175
3.9381969098454923,-0.10674779421834964
3.940197009850493,-0.031196794535343325
3.942197109855493,-0.04965723011180192
3.9441972098604934,-0.06255579894089873
3.9461973098654934,-0.0149438318806008
3.9481974098704935,-0.03652416460678082
3.950197509875494,0.008450684647467675
3.952197609880494,0.006698335589498366
3.9541977098854946,0.032899298816986035
3.9561978098904946,0.01935834970829536
3.958197909895495,0.041970160804496795
3.960198009900495,0.06159147342425583
3.9621981099054953,0.05433235366082609
3.9641982099104958,0.05379619978462753
3.966198309915496,-0.017541612947600295
3.9681984099204963,0.05761752052209366
3.9701985099254964,0.04674761053587073
3.972198609930497,0.11020835303846943
3.974198709935497,-0.005497131775586073
3.976198809940497,0.0015459446581814168
3.9781989099454975,-0.012044499373200195
3.9801990099504976,0.008106366994968436
3.982199109955498,0.049568025404543525
3.984199209960498,0.03535980747639083
3.9861993099654986,0.012408045928499499
3.9881994099704987,0.07214203801183992
3.9901995099754988,0.08581758179916388
3.9921996099804993,-0.04302215157303706
3.9941997099854993,0.03148732762962486
3.9961998099905,-0.013167483274460892
3.9981999099955,-0.08033704232852895
4.0002000100005,0.07314259592808914
4.0022001100055,0.05934708271865005
4.0042002100105005,-0.04930985934877332
4.006200310015501,0.08907969712210163
4.0082004100205015,-0.009310872895228087
4.010200510025501,0.03162433023633754
4.012200610030502,0.01867795946044688
4.014200710035502,0.020954597285788412
4.016200810040502,0.0013684454315431912
4.018200910045502,0.008716694260976246
4.020201010050503,0.03759813479473747
4.022201110055503,-0.01196638296595768
4.024201210060503,0.0011460056710075016
4.026201310065503,-0.10868831964386566
4.028201410070504,-0.08180107977572493
4.0302015100755035,0.13156308791446483
4.032201610080504,0.03417949082657898
4.0342017100855045,-0.044416535464534126
4.036201810090505,0.04638268508106807
4.038201910095505,0.0028717501399444663
4.040202010100505,0.01816357500355158
4.042202110105506,0.008277836263048413
4.044202210110505,-0.026626175485202127
4.046202310115506,0.024475876516578746
4.048202410120506,-0.032283507199088846
4.050202510125507,0.008121141822287613
4.052202610130506,0.08461032658360468
4.054202710135507,-0.013781806526001745
4.056202810140507,-0.02996272495945626
4.058202910145507,-0.019831580000049295
4.0602030101505076,-0.02733539161039061
4.062203110155508,-0.01271965449447332
4.064203210160509,-0.04835214249417487
4.066203310165508,0.015339163660141248
4.068203410170509,0.06497386426014648
4.070203510175509,-0.02120672742635976
4.072203610180509,0.04640032043566277
4.074203710185509,-0.048125232192638215
4.07620381019051,-0.011218120916231842
4.07820391019551,0.08547995940569578
4.08020401020051,0.07668263733924333
4.08220411020551,0.07062312039351622
4.084204210210511,0.018697772755837665
4.086204310215511,-0.0377212067550077
4.088204410220511,-0.010709405517821503
4.090204510225512,0.01972179781654502
4.092204610230512,-0.03784675644215928
4.094204710235512,0.018663545629942883
4.096204810240512,-0.049867277720257966
4.098204910245513,0.004118870685649423
4.100205010250512,-0.07644101573382978
4.102205110255513,0.0064026430366954604
4.104205210260513,-0.0160994286368348
4.106205310265514,0.22635560624869147
4.1082054102705134,0.008222569671220207
4.110205510275514,0.004074648909390703
4.1122056102805145,-0.018761936786332697
4.114205710285514,0.028554579572956137
4.116205810290515,-0.043049847338895615
4.118205910295515,-0.04958856668248414
4.120206010300516,-0.025857093427444813
4.122206110305515,-0.05942542245046004
4.124206210310516,0.05706991875687442
4.126206310315516,-0.5242516114365456
4.128206410320516,0.06421222634934064
4.130206510325516,-0.06562206724924713
4.132206610330517,0.05561388421442144
4.134206710335517,0.03925499619437764
4.136206810340517,1.4600932999035958
4.1382069103455175,-0.023677727963271594
4.140207010350518,-0.00034288295526023916
4.142207110355518,0.0019464399150094108
4.144207210360518,-0.04788484492774725
4.146207310365519,-0.31240207298764583
4.148207410370519,0.020146487217796095
4.150207510375519,-0.05936794187579969
4.152207610380519,0.014946545972138667
4.15420771038552,0.03361137612211578
4.156207810390519,-0.028059768798884124
4.15820791039552,-0.0353214677066735
4.16020801040052,0.035275906488318874
4.162208110405521,-0.09329692212513364
4.1642082104105205,-0.04094432445266911
4.166208310415521,0.26828641827178346
4.1682084104205215,-0.01133912846366105
4.170208510425521,-0.00270390216947135
4.172208610430522,-0.0066557259705643
4.174208710435522,0.02168139019738513
4.176208810440523,-0.022263665626600954
4.178208910445522,-0.03025427942516388
4.180209010450523,0.049064056320071235
4.182209110455523,0.04583218644756254
4.184209210460523,-0.01372850918549875
4.186209310465523,0.031419219534121565
4.188209410470524,0.0019599705963560385
4.190209510475524,0.01913282502598813
4.192209610480524,-0.033932070387095156
4.1942097104855245,0.1399226699155169
4.196209810490525,0.04503261140245141
4.198209910495525,0.11033102568445508
4.200210010500525,0.0805652186902229
4.202210110505526,-0.07314413425025454
4.204210210510526,-0.034933021476821
4.206210310515526,0.021491439868320774
4.208210410520526,-0.08536419099044784
4.210210510525527,0.04192151241764464
4.212210610530526,-0.030990140865029676
4.214210710535527,-0.00575639975855235
4.216210810540527,0.0912027725799472
4.218210910545528,0.07628816349427986
4.2202110105505275,0.024158761781671843
4.222211110555528,0.03752796125482259
4.2242112105605285,0.10325255174989284
4.226211310565528,-0.07592583014306309
4.228211410570529,-0.007506456485076675
4.230211510575529,0.04780422545146358
4.23221161058053,-0.023389749110281865
4.234211710585529,0.03932836522547535
4.23621181059053,-0.011167976799368916
4.23821191059553,0.028293458811976514
4.24021201060053,-0.061443325880229376
4.24221211060553,0.0497980400491263
4.244212210610531,0.03959984299065246
4.246212310615531,0.018190287892972556
4.248212410620531,-0.03224524563159408
4.2502125106255315,0.03124016357852438
4.252212610630532,-0.05154274202785465
4.254212710635532,-0.06927995823524831
4.256212810640532,0.03654194095031538
4.258212910645533,0.11722049655238012
4.260213010650532,0.0031985656319667762
4.262213110655533,-0.06488450589892934
4.264213210660533,0.013441624781379667
4.266213310665534,0.04097879272922086
4.268213410670533,-0.01776488948882744
4.270213510675534,-0.07327897358578596
4.272213610680534,-0.002802170304427092
4.274213710685534,-0.03975502291753196
4.2762138106905345,-0.013892574225863688
4.278213910695535,-0.03906373906564498
4.2802140107005355,0.010174114049323014
4.282214110705535,-0.014684675365778707
4.284214210710536,0.006301322408641723
4.286214310715536,0.0035042958875799246
4.288214410720536,-0.0276291616018257
4.290214510725536,0.05962505354853921
4.292214610730537,0.026918078927735165
4.294214710735537,0.037541878622196406
4.296214810740537,0.005194094614749713
4.298214910745537,-0.031139245374140923
4.300215010750538,-0.005214066830166151
4.3022151107555375,0.023919013095764267
4.304215210760538,0.02986418120423707
4.3062153107655385,0.09569627981608553
4.308215410770539,-0.03860482196125048
4.310215510775539,-0.037606131220318514
4.312215610780539,0.00033949744726803394
4.31421571078554,-0.05552705036553949
4.316215810790539,-0.02068947929307831
4.31821591079554,0.0058560753498741675
4.32021601080054,-0.04398828358316194
4.322216110805541,-0.03385865519094912
4.32421621081054,-0.09423727772354937
4.326216310815541,-0.013623848574647194
4.328216410820541,0.028200896305994833
4.330216510825541,0.03414678442756921
4.3322166108305415,-0.06604530313481914
4.334216710835542,-0.05468290103759393
4.336216810840543,0.0001693203182238082
4.338216910845542,0.009907578166177513
4.340217010850543,0.03825508044348569
4.342217110855543,-0.06453559799223589
4.344217210860543,-0.01309850946745373
4.346217310865543,0.008252291574944686
4.348217410870544,0.05736083589543115
4.350217510875544,0.0007154002454819934
4.352217610880544,0.005714432133975222
4.354217710885544,-0.08854378447541726
4.356217810890545,-0.026372858564433745
4.3582179108955446,-0.07565362249623268
4.360218010900545,-0.02943969278862296
4.362218110905546,-0.010047993555223492
4.364218210910546,-0.08373829464166337
4.366218310915546,-0.009202450272549982
4.368218410920546,0.05236267674294484
4.370218510925547,-0.05252461525924667
4.372218610930546,-0.05943388589023904
4.374218710935547,-0.03001235191134178
4.376218810940547,0.03787290385116247
4.378218910945548,0.010614735668426618
4.380219010950547,0.004516549630221765
4.382219110955548,0.028015895310619696
4.3842192109605485,0.018250878336203268
4.386219310965548,0.01777499632954063
4.388219410970549,-0.010164552780554186
4.390219510975549,0.007305850919212845
4.39221961098055,0.038197447855407574
4.394219710985549,-0.04008430685845912
4.39621981099055,0.053542117908045854
4.39821991099555,-0.06475379802987657
4.40022001100055,-0.007506725519206722
4.40222011100555,0.04150003687650388
4.404220211010551,-0.04931673240322953
4.406220311015551,-0.007319179221279747
4.408220411020551,0.02970725911685687
4.4102205110255515,0.04867228384690544
4.412220611030552,-0.00958003875146827
4.414220711035552,0.037285907726777416
4.416220811040552,0.03520120694769227
4.418220911045553,-0.005628482632225461
4.420221011050553,-0.07518788180420738
4.422221111055553,-0.01906458449762948
4.424221211060553,-0.03202511330514679
4.426221311065554,-0.06307586553257748
4.428221411070553,-0.04975947554435476
4.430221511075554,0.062101704665309204
4.432221611080554,0.10094701448661991
4.434221711085555,-0.0111733824089617
4.4362218110905545,-0.05116362575375695
4.438221911095555,0.09255903919165318
4.4402220111005555,0.01640125559757718
4.442222111105555,0.024879478539832273
4.444222211110556,-0.05762387483317734
4.446222311115556,-0.023605243715153185
4.448222411120557,0.0015195759389303705
4.450222511125556,-0.07119896968095948
4.452222611130557,0.014040005682493906
4.454222711135557,-0.04589734772786971
4.456222811140557,-0.04814421227916059
4.458222911145557,0.019084818656534122
4.460223011150558,0.02180495261968527
4.462223111155558,0.03705249127152308
4.464223211160558,-0.017488996205161773
4.4662233111655585,0.014048908289786248
4.468223411170559,-0.012920406748180714
4.470223511175559,0.0382721547772663
4.472223611180559,0.010693292460795742
4.47422371118556,0.07072815074372862
4.47622381119056,-0.022727972624118888
4.47822391119556,-0.06149323291925332
4.48022401120056,-0.026725831816261394
4.482224111205561,-0.03920420516330725
4.48422421121056,-0.041862960212274467
4.486224311215561,0.03616205880178417
4.488224411220561,-0.03639755537251172
4.490224511225562,0.07180646022050378
4.4922246112305615,-0.07031760775309415
4.494224711235562,0.04463915606009192
4.4962248112405625,0.011996421934885072
4.498224911245562,0.028523721384271967
4.500225011250563,0.026305869929787735
4.502225111255563,0.039335210557921545
4.504225211260564,0.0025382227836360733
4.506225311265563,0.020037917990155796
4.508225411270564,-0.06330337414940092
4.510225511275564,-0.046885947716467063
4.512225611280564,-0.06996753072750063
4.514225711285564,-0.12336390664929889
4.516225811290565,-0.06845283835363254
4.518225911295565,-0.037664697292257056
4.520226011300565,0.005806463105668557
4.5222261113055655,0.027837535267762437
4.524226211310566,-0.05764292393964121
4.526226311315566,-4.049699156713541e-05
4.528226411320566,-0.01065376050732553
4.530226511325567,0.018688455100290373
4.532226611330567,0.03653517106627033
4.534226711335567,-0.01147342349626806
4.536226811340567,0.03793758620545786
4.538226911345568,-0.003679100884924489
4.540227011350567,0.0951619211351905
4.542227111355568,0.004014683499082405
4.544227211360568,-0.0028560081032506135
4.546227311365569,-0.08408732933387311
4.5482274113705685,0.03964156672867583
4.550227511375569,0.11704425856293804
4.5522276113805695,-0.04565314387466599
4.554227711385569,-0.014359548830882056
4.55622781139057,0.014373841333613767
4.55822791139557,0.03614899158498691
4.560228011400571,0.00396478153561577
4.56222811140557,0.02082447352259865
4.564228211410571,0.027935360678529114
4.566228311415571,-0.03870992321126795
4.568228411420571,0.030968022157358888
4.570228511425571,0.0640811115563801
4.572228611430572,-0.007689515439156031
4.5742287114355715,0.0385592404704545
4.576228811440572,-0.0002988764056501106
4.5782289114455725,-0.09874259155027745
4.580229011450573,-0.00019535117837038343
4.582229111455573,-0.004717339706102491
4.584229211460573,-0.07367791602278134
4.586229311465574,-0.022342912772227976
4.588229411470573,0.010609475946093872
4.590229511475574,-0.031005919281250672
4.592229611480574,-0.03293171521876478
4.594229711485575,-0.048529449291454835
4.596229811490574,-0.04264594526923577
4.598229911495575,0.038849849371432495
4.600230011500575,0.05999991129939502
4.602230111505575,0.15617895026621334
4.6042302115105755,-0.0001827879302319759
4.606230311515576,0.060941189280021374
4.6082304115205766,-0.10591255576040724
4.610230511525576,-0.052355277283365115
4.612230611530577,-0.08757208092195505
4.614230711535577,0.062440106038452174
4.616230811540577,-0.029948799698102477
4.618230911545577,0.04423569972351645
4.620231011550578,0.011928965538052921
4.622231111555578,0.03165386559674957
4.624231211560578,-0.11378935094146908
4.626231311565578,0.0634862170671651
4.628231411570579,-0.02485041697745945
4.6302315115755786,0.05345956020229292
4.632231611580579,-0.025082560309217156
4.63423171158558,-0.04304335903130826
4.63623181159058,0.05871787665836491
4.63823191159558,0.05559104672547508
4.64023201160058,-0.003272242407781989
4.642232111605581,0.0015824711140462661
4.64423221161058,0.057161724564306196
4.646232311615581,-0.03953713268300456
4.648232411620581,-0.09136374888400106
4.650232511625582,-0.09458058009835935
4.652232611630581,-0.005242782042881172
4.654232711635582,0.03903099895542922
4.6562328116405824,-0.010626751642714347
4.658232911645582,-0.015924390757959112
4.660233011650583,-0.024436965940045824
4.662233111655583,0.06207955436610207
4.664233211660584,-0.033521914665084265
4.666233311665583,0.07324223703314542
4.668233411670584,-0.01257207255431902
4.670233511675584,-0.03498106206057676
4.672233611680584,0.023772602075052066
4.674233711685584,0.053132606631874794
4.676233811690585,-0.003790681525506708
4.678233911695585,0.017947271587417466
4.680234011700585,0.027734922651656488
4.6822341117055855,-0.012516099735546224
4.684234211710586,0.026951804955702565
4.686234311715586,-0.03840114275271603
4.688234411720586,-0.0018414622890588234
4.690234511725587,-0.024608258975605674
4.692234611730587,-0.0220103491637995
4.694234711735587,-0.019355191293773555
4.696234811740587,-0.030443468484571495
4.698234911745588,-0.06619798254295979
4.700235011750587,0.04991106984136816
4.702235111755588,-0.06417109407726833
4.704235211760588,-0.024623715604209357
4.706235311765589,0.08979104330091173
4.7082354117705885,0.026159791144431805
4.710235511775589,-0.07392848279221399
4.7122356117805895,0.05369997449096839
4.714235711785589,-0.03479944090243529
4.71623581179059,0.028595446054289778
4.71823591179559,0.011374825409908458
4.720236011800591,0.0743559426526287
4.72223611180559,0.017429505631351244
4.724236211810591,-0.0044741754611175395
4.726236311815591,-0.019015103268793798
4.728236411820591,-0.02074457801445738
4.730236511825591,-0.0017211418670271946
4.732236611830592,0.07621362685809441
4.734236711835592,-0.037173449823649674
4.736236811840592,0.070062862821008
4.7382369118455925,0.02072987842704792
4.740237011850593,0.022597217954655028
4.742237111855593,-0.11334138227159599
4.744237211860593,0.06314373697308004
4.746237311865594,0.10985429576772905
4.748237411870594,0.005101735099906933
4.750237511875594,0.024149640551218834
4.752237611880594,-0.00706791560531451
4.754237711885595,0.006785932229570774
4.756237811890594,0.016614885572057904
4.758237911895595,0.037294731787981254
4.760238011900595,0.015386026122151363
4.762238111905596,0.028523241684023433
4.7642382119105955,0.010245725012287361
4.766238311915596,-0.05534556636157953
4.7682384119205965,-0.00971643905910664
4.770238511925596,-0.007552442978886071
4.772238611930597,-0.002142254848269629
4.774238711935597,0.007310255874191925
4.776238811940598,-0.04580914492716816
4.778238911945597,-0.03380176946641092
4.780239011950598,0.031195411743059898
4.782239111955598,0.06171721719372665
4.784239211960598,0.021063948404465876
4.786239311965598,-0.015583687780468937
4.788239411970599,0.0025075526236745657
4.790239511975599,0.06092812024788461
4.792239611980599,0.02455166093122536
4.7942397119855995,0.02950934944603777
4.7962398119906,0.0033033025820933485
4.7982399119956,0.06355734079280809
4.8002400120006,-0.01398621683357592
4.802240112005601,-0.0072487019435820525
4.804240212010601,0.008769017297834511
4.806240312015601,0.016091206849844258
4.808240412020601,0.12637669260279302
4.810240512025602,-0.00805024291243946
4.812240612030601,-0.010613565012000437
4.814240712035602,0.024882560466699555
4.816240812040602,-0.059549056873065734
4.818240912045603,0.02550130474324902
4.8202410120506025,0.07890568307506168
4.822241112055603,0.10431626635308222
4.8242412120606035,-0.049477257880078174
4.826241312065603,-0.02602913390693445
4.828241412070604,-0.015826474009039346
4.830241512075604,0.08304337199003105
4.832241612080605,0.018702484127070148
4.834241712085604,0.04464413606351947
4.836241812090605,-0.0007889928752240563
4.838241912095605,-0.09441235763371933
4.840242012100605,-0.07795398083627807
4.842242112105605,-0.06230909042093544
4.844242212110606,-0.05895432554899621
4.846242312115606,-0.011253536605246216
4.848242412120606,0.024273796712703848
4.8502425121256065,-0.10473862006297499
4.852242612130607,0.017178292522727453
4.854242712135607,-0.01287354832068658
4.856242812140607,0.034805157157337556
4.858242912145608,0.03448182204870232
4.860243012150608,0.012123304720913365
4.862243112155608,-0.03583526585398046
4.864243212160608,0.05125932185898613
4.866243312165609,0.052207598672657035
4.868243412170608,-0.03908640776917449
4.870243512175609,0.12181074723751054
4.872243612180609,-0.032258403781881904
4.87424371218561,0.07400122769290404
4.8762438121906095,-0.02152257406815482
4.87824391219561,0.02804666532130978
4.8802440122006105,0.14797468361598742
4.88224411220561,-0.04798393406801907
4.884244212210611,0.0185462187768631
4.886244312215611,0.05236798178193123
4.888244412220611,0.0028597648368199934
4.890244512225611,-0.008563928442662913
4.892244612230612,0.019668873757591604
4.894244712235612,0.07079167487130904
4.896244812240612,0.021899872267965772
4.898244912245612,-0.11421595976016757
4.900245012250613,0.039266003513789505
4.9022451122556125,0.009671891984655928
4.904245212260613,-0.06473197570968507
4.906245312265614,-0.007773088581555174
4.908245412270614,-0.017556909392559605
4.910245512275614,-0.0020680898973649093
4.912245612280614,0.016307164840399256
4.914245712285615,0.09861292038811953
4.916245812290614,-0.052092246775240304
4.918245912295615,-0.01247014777355504
4.920246012300615,-0.007008942516428127
4.922246112305616,0.10714547369246814
4.924246212310615,0.09676277929040193
4.926246312315616,0.06987037311704813
4.928246412320616,-0.02312492873678906
4.930246512325616,0.032104938998584014
4.932246612330617,-0.1201069246689168
4.934246712335617,0.008027830572867056
4.936246812340618,-0.027641897986176386
4.938246912345617,0.029450756597634267
4.940247012350618,0.01676168454244277
4.942247112355618,-0.020404662421861598
4.944247212360618,0.08356243233069854
4.946247312365618,0.03671265076781522
4.948247412370619,-0.11490305655490927
4.950247512375619,-0.05747834212305578
4.952247612380619,0.037363390830718234
4.9542477123856195,-0.014402176898267694
4.95624781239062,-0.0604674688096459
4.95824791239562,-0.029742213503315157
4.96024801240062,-0.1230493715947634
4.962248112405621,-0.0909519268660081
4.964248212410621,0.034097386086741135
4.966248312415621,0.05832114454454654
4.968248412420621,-0.006688598129543018
4.970248512425622,0.03055087510640014
4.972248612430621,-0.07437682983038067
4.974248712435622,-0.027267147775180647
4.976248812440622,0.03168438159373679
4.978248912445623,-0.0471094877041981
4.9802490124506225,0.05355405499257629
4.982249112455623,0.0007748390732648648
4.9842492124606235,0.052330474537230234
4.986249312465623,-0.0043720460579453465
4.988249412470624,0.02551354490586066
4.990249512475624,-0.04841912912034323
4.992249612480625,0.05375551264334273
4.994249712485624,-0.03187543835446589
4.996249812490625,0.008956041036761935
4.998249912495625,0.011501539738722661
5.000250012500625,-0.010495871048904202
5.002250112505625,-0.07005781250644881
5.004250212510626,-0.02399337739089326
5.006250312515626,0.013480428325864527
5.008250412520626,0.05054408354655607
5.0102505125256265,-0.040337874529066564
5.012250612530627,0.008734760311715804
5.014250712535627,0.03747865036925046
5.016250812540627,0.017522163979680244
5.018250912545628,-0.019748006031008895
5.020251012550628,-0.004807873133888155
5.022251112555628,0.08053131597661156
5.024251212560628,0.01153153962602061
5.026251312565629,0.0046526098849751715
5.028251412570628,0.046887520099614576
5.030251512575629,-0.032584867075251704
5.032251612580629,-0.005979372385100495
5.03425171258563,0.052014552983012996
5.0362518125906295,0.028001071015892984
5.03825191259563,0.02426594453275418
5.0402520126006305,-0.023276873584491257
5.04225211260563,0.0950378465046622
5.044252212610631,-0.043321830757426356
5.046252312615631,-0.024581192655977725
5.048252412620632,0.04515767731031195
5.050252512625631,0.052469863509888394
5.052252612630632,0.01123734046320291
5.054252712635632,-0.06292159273689842
5.056252812640632,0.012087451789388698
5.058252912645632,-0.05209427553099625
5.060253012650633,-0.0011260726477524817
5.062253112655633,0.0007760750659343501
5.064253212660633,0.018844959239042974
5.0662533126656335,0.041481333253148595
5.068253412670634,0.0464811799320767
5.070253512675634,-0.03270306779479747
5.072253612680634,-0.02268720937852281
5.074253712685635,0.03654917813781007
5.076253812690635,0.04718455489725626
5.078253912695635,-0.001091189089028147
5.080254012700635,-0.04188925652572241
5.082254112705636,0.052712145189807526
5.084254212710635,0.05043895402943232
5.086254312715636,-0.06282995620555017
5.088254412720636,0.01904970233702996
5.090254512725637,-0.05096965018170441
5.0922546127306365,0.024210552838514858
5.094254712735637,0.023171674740662687
5.0962548127406375,0.00966161046710029
5.098254912745637,0.0032691516701493792
5.100255012750638,0.08596123215819067
5.102255112755638,0.024208553831747463
5.104255212760639,-0.02206191708193264
5.106255312765638,0.06388674783523168
5.108255412770639,0.06878509279402965
5.110255512775639,0.03031987299085829
5.112255612780639,0.03261947263586897
5.114255712785639,0.07494132195531104
5.11625581279064,-0.048887280408902986
5.11825591279564,-0.003557784267384498
5.12025601280064,-0.08068440313392787
5.1222561128056405,0.030740886615593817
5.124256212810641,0.05386855310766351
5.126256312815641,0.00577012727075885
5.128256412820641,-0.05539764358143487
5.130256512825642,0.10505881364072354
5.132256612830642,-0.037520228619726224
5.134256712835642,0.019398728187919236
5.136256812840642,-0.016705836552766553
5.138256912845643,0.01919434999058159
5.140257012850642,0.07505578017789144
5.142257112855643,-0.03457079547479926
5.144257212860643,0.03224088360912101
5.146257312865644,0.002433065235057003
5.1482574128706435,0.0412223707276975
5.150257512875644,0.0025165741242667793
5.1522576128806445,0.022011368448666333
5.154257712885644,-0.0032462499083009268
5.156257812890645,0.007770314829958745
5.158257912895645,0.009178817304891305
5.160258012900646,0.020786192049127322
5.162258112905645,0.034373124706850375
5.164258212910646,-0.044236768818350154
5.166258312915646,0.009554777576397137
5.168258412920646,0.015551924351463617
5.170258512925646,-0.07307577144707769
5.172258612930647,-0.011876587021577727
5.174258712935647,0.07056020068640607
5.176258812940647,-0.005439190623285215
5.1782589129456476,-0.10218473424511948
5.180259012950648,0.04179744705684785
5.182259112955648,0.011205910277018154
5.184259212960648,0.01763792469593866
5.186259312965649,0.009111507096793658
5.188259412970649,0.02210124100915189
5.190259512975649,-0.030916924468015212
5.192259612980649,-0.05491272604109443
5.19425971298565,-0.004308727584299591
5.196259812990649,0.07846771406760157
5.19825991299565,0.06802068982139362
5.20026001300065,-0.04677302030856085
5.20226011300565,-0.012261556320900535
5.204260213010651,0.03851122521117946
5.206260313015651,0.09994271930349675
5.208260413020652,5.925203551439896e-05
5.210260513025651,0.023567825891583113
5.212260613030652,-0.002159963482387587
5.214260713035652,0.012680185940276048
5.216260813040652,0.02375717056983372
5.218260913045652,-0.0036550828871106836
5.220261013050653,0.0010619136549747056
5.222261113055653,-0.06495248875755598
5.224261213060653,-0.00906805972682741
5.2262613130656534,0.06682154037512628
5.228261413070654,0.002362788200973656
5.230261513075654,-0.043281939718361064
5.232261613080654,-0.040876160439993064
5.234261713085655,-0.029227364498373848
5.236261813090655,-0.061945602662258584
5.238261913095655,0.018345380935911967
5.240262013100655,0.0369687417576918
5.242262113105656,-0.006050269019454137
5.244262213110655,0.024525066476299033
5.246262313115656,0.03367886726751604
5.248262413120656,0.014284067109147881
5.250262513125657,-0.04867005926151054
5.2522626131306565,0.011663168996911666
5.254262713135657,-0.055890917457777495
5.2562628131406575,0.02606935883371028
5.258262913145657,-0.04379027199773466
5.260263013150658,-0.04515857010981861
5.262263113155658,-0.047544274165890105
5.264263213160659,-0.002882060580524883
5.266263313165658,-0.09337399184284768
5.268263413170659,-0.00850759187264773
5.270263513175659,0.02235293985200444
5.272263613180659,-0.021935343663934275
5.274263713185659,-0.03757335038377471
5.27626381319066,-0.07117511566805135
5.27826391319566,-0.0061191868204833934
5.28026401320066,0.0037136227745977893
5.2822641132056605,0.019652747428084916
5.284264213210661,0.004699009806610624
5.286264313215661,0.03252697417446882
5.288264413220661,-0.0248432512088489
5.290264513225662,-0.035510653971473495
5.292264613230662,0.0420692959232683
5.294264713235662,-0.00360420377413174
5.296264813240662,0.0061239644093298825
5.298264913245663,-0.013705258870361232
5.300265013250662,-0.09202352157346315
5.302265113255663,0.025866126328784517
5.304265213260663,-0.00017627568835837216
5.306265313265664,0.006245117744508092
5.3082654132706635,-0.0648677403554109
5.310265513275664,-0.05053792710446092
5.3122656132806645,-0.03799526974176713
5.314265713285664,0.0573683347738245
5.316265813290665,-0.07494456066911474
5.318265913295665,-0.02899198405244637
5.320266013300666,-0.06927888751292552
5.322266113305665,0.006877505860683149
5.324266213310666,-0.05466328605384139
5.326266313315666,0.06889848996034907
5.328266413320666,-0.03817894387631701
5.330266513325666,0.03257916438846755
5.332266613330667,0.049871095122642616
5.334266713335667,0.05808288876247906
5.336266813340667,0.055935190832746645
5.3382669133456675,-0.054640087623391786
5.340267013350668,0.05010333562665358
5.342267113355668,-0.024583859403316394
5.344267213360668,0.052996881867278606
5.346267313365669,-0.07822350294466535
5.348267413370669,-0.013291586681833055
5.350267513375669,0.05131718154708982
5.352267613380669,-0.05648543767931579
5.35426771338567,0.020351473438496928
5.356267813390669,0.01869688188814744
5.35826791339567,-0.000526351727157731
5.36026801340067,0.04364780292964125
5.362268113405671,-0.03797687130162009
5.3642682134106705,-0.04289143754244661
5.366268313415671,0.02209211938083613
5.3682684134206715,-0.06110716964860896
5.370268513425671,0.032863542993958404
5.372268613430672,-0.04902087754151065
5.374268713435672,-0.07278590230530055
5.376268813440673,-0.05145684343749294
5.378268913445672,-0.04423007746785855
5.380269013450673,0.033799619043455735
5.382269113455673,-0.013673885052050742
5.384269213460673,-0.07306508352299838
5.386269313465673,-0.06679381025569057
5.388269413470674,0.019028428838237257
5.390269513475674,-0.03677337442352801
5.392269613480674,-0.021225918371946664
5.3942697134856745,-0.008671787996209953
5.396269813490675,0.019445820205584465
5.398269913495675,-0.010631653946336965
5.400270013500675,0.08981745477618049
5.402270113505676,-0.06367251900344159
5.404270213510676,0.04610008064914615
5.406270313515676,0.04847806537006916
5.408270413520676,0.04723483966055232
5.410270513525677,0.010241810954324845
5.412270613530676,0.03585468175170122
5.414270713535677,-0.09862538091215846
5.416270813540677,0.04036894889523693
5.418270913545678,-0.019027172593934973
5.4202710135506775,0.07973158976325496
5.422271113555678,0.013171258805003985
5.4242712135606785,-0.054221732210506524
5.426271313565678,0.006078913214701287
5.428271413570679,0.014084994786737063
5.430271513575679,-0.036289869058929676
5.43227161358068,-0.03747651779958078
5.434271713585679,0.0339264663724144
5.43627181359068,-0.10995082848967
5.43827191359568,0.04260510363166681
5.44027201360068,0.07918398277127772
5.44227211360568,0.06469391510390575
5.444272213610681,0.030634924528387005
5.446272313615681,0.11989143711631085
5.448272413620681,0.03304616847021376
5.4502725136256815,-0.041583996951827476
5.452272613630682,0.05213958215216487
5.454272713635682,-0.034456521238575226
5.456272813640682,0.031587103718641554
5.458272913645683,0.05800033327881841
5.460273013650683,-0.02334218579433996
5.462273113655683,0.006759681127539465
5.464273213660683,-0.027480606326146673
5.466273313665684,-0.03775919718931912
5.468273413670683,0.030139062951693774
5.470273513675684,0.01993235772498694
5.472273613680684,0.011732525208200669
5.474273713685685,0.007548837822480639
5.4762738136906846,0.03400909090030034
5.478273913695685,-0.05117824215862852
5.480274013700686,0.002727687098524781
5.482274113705685,0.012507177878075565
5.484274213710686,0.004385199031269802
5.486274313715686,0.14502855799171507
5.488274413720687,-0.017257928295125163
5.490274513725686,0.051145276666982535
5.492274613730687,-0.03923629356834968
5.494274713735687,0.04743817492138147
5.496274813740687,-0.06498010859592948
5.498274913745687,-0.027122749248302
5.500275013750688,-0.010861973535674505
5.5022751137556885,-0.0561342821666454
5.504275213760688,-0.07222390193583451
5.506275313765689,-0.41818481249001926
5.508275413770689,0.06420697160213866
5.510275513775689,0.012019267501167233
5.512275613780689,0.0011728375027543442
5.51427571378569,0.020649250667550283
5.516275813790689,1.5348228293542323
5.51827591379569,0.046025027257921944
5.52027601380069,-0.039488682234390664
5.522276113805691,-0.0021824759006560785
5.5242762138106905,0.021644007760000646
5.526276313815691,-0.3382030878966661
5.5282764138206915,-0.019608961387952484
5.530276513825691,-0.006270271438773798
5.532276613830692,-0.02698209508915675
5.534276713835692,0.03727487590865435
5.536276813840693,-0.03294994972822268
5.538276913845692,-0.06563455373364854
5.540277013850693,-0.015527560877261974
5.542277113855693,-0.03188697389458427
5.544277213860693,0.006051049398466801
5.546277313865693,0.32590284877801
5.548277413870694,0.09216588834202726
5.550277513875694,-0.05099537803638113
5.552277613880694,0.021905772573112027
5.5542777138856945,0.06440593295386673
5.556277813890695,-0.1122218730347429
5.558277913895695,0.015397453402464185
5.560278013900695,-0.06325218706900086
5.562278113905696,0.013179115604183125
5.564278213910696,-0.029298253890205933
5.566278313915696,0.04965162247737937
5.568278413920696,-0.038001185860503
5.570278513925697,0.03414068910209772
5.572278613930696,-0.038321447087599846
5.574278713935697,0.0802965089181006
5.576278813940697,0.06320484524152474
5.578278913945698,0.0029261698726267328
5.5802790139506975,0.04251330461243134
5.582279113955698,0.008369315939310744
5.5842792139606985,0.059080455596616656
5.586279313965698,0.011629275896881333
5.588279413970699,-0.05493191535447581
5.590279513975699,0.01000192957155703
5.5922796139807,-0.053529682438429316
5.594279713985699,-0.10214355337486175
5.5962798139907,0.05026270303951446
5.5982799139957,-0.01817610173715986
5.6002800140007,0.05975388108554597
5.6022801140057,-0.010125178649296651
5.604280214010701,-0.04174836821731151
5.606280314015701,-0.0534398771630947
5.608280414020701,0.027793740559291832
5.6102805140257015,0.07523095178930977
5.612280614030702,0.08334744933323324
5.614280714035702,-0.04106167916617576
5.616280814040702,-0.015086838333854907
5.618280914045703,0.010572181388685108
5.620281014050703,0.011991828533053731
5.622281114055703,0.03214610914011615
5.624281214060703,-0.027946649625234
5.626281314065704,0.04245420033686519
5.628281414070703,0.018931037646191366
5.630281514075704,-0.05119216991228523
5.632281614080704,-0.012805345320753149
5.634281714085705,0.01468006035307732
5.6362818140907045,-0.017579880123633537
5.638281914095705,-0.006382630617954685
5.6402820141007055,-0.01916369630359543
5.642282114105705,-0.010445984416421427
5.644282214110706,-0.041022886198346736
5.646282314115706,-0.02718679412893936
5.648282414120707,0.004908199250644778
5.650282514125706,0.051280173023607545
5.652282614130707,-0.08658507438951529
5.654282714135707,0.043539370957235535
5.656282814140707,0.06513334864969228
5.658282914145707,0.004404470799100132
5.660283014150708,0.03595243635146685
5.662283114155708,0.053940766654227416
5.664283214160708,0.014504218791665378
5.6662833141657085,0.01566003348036743
5.668283414170709,-0.057540622801352116
5.670283514175709,-0.000981293586729251
5.672283614180709,0.0736081914531979
5.67428371418571,-0.006981589226847086
5.67628381419071,-0.10459286302135068
5.67828391419571,0.07269039726189717
5.68028401420071,0.0687455015418579
5.682284114205711,0.06290071593605655
5.68428421421071,0.04396812362733002
5.686284314215711,0.049929768282634374
5.688284414220711,-8.200311389761929e-05
5.690284514225712,0.03591276041963103
5.6922846142307115,-0.03356779837629891
5.694284714235712,-0.004148405831890404
5.6962848142407125,0.07558842177792208
5.698284914245712,-0.03372488617333734
5.700285014250713,0.0016929974000323908
5.702285114255713,0.021333586513982494
5.704285214260714,-0.0951271330978711
5.706285314265713,-0.012400332559287353
5.708285414270714,-0.0741271739598149
5.710285514275714,0.0005388453000005898
5.712285614280714,0.0051835401256826695
5.714285714285714,0.023523138379342036
5.716285814290715,-0.01453451121797869
5.718285914295715,0.008074172235481868
5.720286014300715,0.04561700195593516
5.7222861143057155,0.04687109964589878
5.724286214310716,-0.06258108380033553
5.726286314315716,-0.015069602419017357
5.728286414320716,-0.10142836560696694
5.730286514325717,0.03499594652896639
5.732286614330717,-0.005911125048330666
5.734286714335717,-0.012258306412341024
5.736286814340717,0.027373184798201496
5.738286914345718,0.13375844521865082
5.740287014350717,0.12337651411548717
5.742287114355718,-0.012995922670704686
5.744287214360718,0.06618140620264032
5.746287314365719,0.0377962067093891
5.7482874143707186,-0.02215445162455813
5.750287514375719,0.00047491896906784545
5.75228761438072,0.022847394119847115
5.754287714385719,0.026562611870692362
5.75628781439072,-0.009708876714481498
5.75828791439572,-0.04948219742148044
5.760288014400721,-0.0728829339409229
5.76228811440572,-0.082335401472054
5.764288214410721,0.003281874636048565
5.766288314415721,0.05592299151031208
5.768288414420721,-0.03853220379927906
5.770288514425721,0.0020333293431960635
5.772288614430722,0.018745155283905007
5.7742887144357224,-0.01708587251829
5.776288814440722,0.005432389042364698
5.778288914445723,-0.0877358543191924
5.780289014450723,0.04987046616452742
5.782289114455723,-0.0813745337754707
5.784289214460723,-0.05241530922512924
5.786289314465724,0.03726896513378516
5.788289414470724,-0.0015178250338153823
5.790289514475724,0.011810584552417385
5.792289614480724,-0.005757624182636719
5.794289714485725,0.07179440737182202
5.7962898144907244,-0.020952938111061276
5.798289914495725,-0.0027080264579306327
5.8002900145007255,-0.021216527820161653
5.802290114505726,0.030171973659033215
5.804290214510726,-0.04207600500830477
5.806290314515726,0.04551291720347004
5.808290414520727,0.03821120110320124
5.810290514525726,0.08825132556463999
5.812290614530727,0.04479648929483284
5.814290714535727,0.008624689332735792
5.816290814540728,-0.03082245077647618
5.818290914545727,-0.03733686462207921
5.820291014550728,-0.032971953167177756
5.822291114555728,0.009770566595856858
5.824291214560728,0.05257050002886803
5.8262913145657285,-0.02278047205665612
5.828291414570729,-0.023861299706972348
5.830291514575729,-0.00842328680697233
5.832291614580729,-0.05477103639499917
5.83429171458573,-0.030445826271903176
5.83629181459073,0.04159601658586942
5.83829191459573,0.0204233462040758
5.84029201460073,0.00914432175273178
5.842292114605731,-0.011559105788130498
5.84429221461073,0.030595989713198248
5.846292314615731,-0.06441423661449021
5.848292414620731,0.041142286888428324
5.850292514625732,-0.0749202469501904
5.8522926146307315,-6.830945642688727e-05
5.854292714635732,0.024904407413367247
5.8562928146407325,0.0020863310270325414
5.858292914645732,0.000749319772348377
5.860293014650733,-0.041218249951732816
5.862293114655733,-0.03745047705314371
5.864293214660734,0.010318685479558089
5.866293314665733,0.010317516093515763
5.868293414670734,0.035952806843725635
5.870293514675734,0.10095786248321835
5.872293614680734,-0.07523876532170899
5.874293714685734,-0.011608817931871011
5.876293814690735,-0.02861826508694977
5.878293914695735,0.10858859380530748
5.880294014700735,-0.055158911207466535
5.8822941147057355,-0.04844379177833622
5.884294214710736,-0.09722735620584372
5.886294314715736,-0.08233440054881769
5.888294414720736,-0.029066352529762442
5.890294514725737,0.025930985311958078
5.892294614730737,0.06705067693064291
5.894294714735737,-0.09001493364353448
5.896294814740737,-0.08045380379755934
5.898294914745738,0.13943386056589466
5.900295014750737,0.0021606425333649897
5.902295114755738,-0.015396924584091858
5.904295214760738,0.08581148381671996
5.906295314765739,-0.11111882031061349
5.9082954147707385,0.036360745590858855
5.910295514775739,-0.0019330931550369233
5.9122956147807395,-0.04129501646139343
5.914295714785739,-0.06753947378212365
5.91629581479074,-0.06520386997484273
5.91829591479574,0.04699328694960309
5.920296014800741,-0.006792218768184215
5.92229611480574,-0.07316786530848214
5.924296214810741,0.07955544583850133
5.926296314815741,0.0019021716481343002
5.928296414820741,-0.06286874536534948
5.930296514825741,0.014001716417162264
5.932296614830742,0.02831036161116803
5.934296714835742,0.0513695224209267
5.936296814840742,0.06125893817640378
5.9382969148457425,0.045076049067697854
5.940297014850743,-0.005474061884035847
5.942297114855743,0.017967933095235325
5.944297214860743,0.00664951721840076
5.946297314865744,-0.09303121686447541
5.948297414870744,0.015978172192822954
5.950297514875744,-0.03750756666522723
5.952297614880744,0.002536253641857721
5.954297714885745,-0.03896255468217604
5.956297814890744,-0.032512929141925044
5.958297914895745,-0.11053057739643626
5.960298014900745,0.04921780929966414
5.962298114905746,0.03549022199191459
5.9642982149107455,0.026846344360206987
5.966298314915746,0.03700231604776646
5.9682984149207465,0.06852624009325167
5.970298514925746,-0.03911628450538235
5.972298614930747,-0.054934191151643455
5.974298714935747,0.027033067753235402
5.976298814940748,-0.07809953584395611
5.978298914945747,-0.03982849602951443
5.980299014950748,0.0018200168890894698
5.982299114955748,0.03734766425613514
5.984299214960748,0.012364465982726624
5.986299314965748,-0.032611744762765064
5.988299414970749,0.025649706494972325
5.990299514975749,0.024248459498154337
5.992299614980749,-0.04695099554486121
5.9942997149857495,0.04778596962856692
5.99629981499075,-0.06839598397465456
5.99829991499575,-0.11282826156417927
6.00030001500075,0.04749202499158891
6.002300115005751,-0.056156249543950924
6.004300215010751,0.0008554346339678894
6.006300315015751,-0.054941682985709096
6.008300415020751,-0.008331790586311187
6.010300515025752,0.07337947310628362
6.012300615030751,0.002332527471662941
6.014300715035752,-0.07964455889441445
6.016300815040752,0.041820756371835896
6.018300915045753,0.02935674476673236
6.0203010150507525,0.019787186473566344
6.022301115055753,-0.00884869074458993
6.024301215060754,-0.03853900251990078
6.026301315065753,0.012600858251813478
6.028301415070754,-0.03322881324085012
6.030301515075754,0.031177123523139394
6.032301615080755,-0.0759936610005888
6.034301715085754,0.007904443839116029
6.036301815090755,0.012012256167383197
6.038301915095755,-0.03170021824313975
6.040302015100755,0.03744363909780992
6.042302115105755,-0.0647626787009698
6.044302215110756,0.02830164892284333
6.046302315115756,0.0048192306659189076
6.048302415120756,0.015454455267445806
6.050302515125757,0.04294856042127671
6.052302615130757,-0.07971926300220564
6.054302715135757,-0.043632864283836975
6.056302815140757,0.07923676365522053
6.058302915145758,-0.03802856419592309
6.060303015150758,-0.023331994691503613
6.062303115155758,0.061558375052192485
6.064303215160758,-0.012021354696732092
6.066303315165759,-0.02983116889488806
6.068303415170758,0.02645708179211876
6.070303515175759,0.06640942059679716
6.0723036151807595,0.1502425945515827
6.07430371518576,-0.006527998081009486
6.07630381519076,0.002035945049198938
6.07830391519576,-0.03542691664217241
6.080304015200761,0.07060339405175321
6.08230411520576,-0.04839027517143405
6.084304215210761,0.0011440536478088581
6.086304315215761,0.07334301884755777
6.088304415220762,0.017636134202104175
6.090304515225761,-0.06107775957864839
