x,y
00:00.0,0.248357077
00:00.0,-0.069132151
00:00.0,0.323844269
00:00.0,0.761514928
00:00.0,-0.117076687
00:00.0,-0.117068478
00:00.0,0.789606408
00:00.0,0.383717365
00:00.0,-0.234737193
00:00.0,0.271280022
00:00.0,-0.231708846
00:00.0,-0.232864877
00:00.0,0.120981136
00:00.0,-0.956640122
00:00.0,-0.862458916
00:00.0,-0.281143765
00:00.0,-0.50641556
00:00.0,0.157123666
00:00.0,-0.454012038
00:00.0,-0.706151851
00:00.0,0.732824384
00:00.0,-0.11288815
00:00.0,0.033764102
00:00.0,-0.712374093
00:00.0,-0.272191362
00:00.0,0.055461295
00:00.0,-0.575496789
00:00.0,0.187849009
00:00.0,-0.300319345
00:00.0,-0.145846875
00:00.0,-0.300853306
00:00.0,0.926139092
00:00.0,-0.006748612
00:00.0,-0.528855464
00:00.0,0.411272456
00:00.0,-0.610421825
00:00.0,0.104431798
00:00.0,-0.979835062
00:00.0,-0.664093024
00:00.0,0.098430618
00:00.0,0.36923329
00:00.0,0.085684141
00:00.0,-0.057824141
00:00.0,-0.150551848
00:00.0,-0.739260995
00:00.0,-0.359922104
00:00.0,-0.230319385
00:00.0,0.528561113
00:00.0,0.171809145
00:00.0,-0.881520078
00:00.0,0.162041985
00:00.1,-0.19254114
00:00.1,-0.338461
00:00.1,0.305838144
00:00.1,0.515499761
00:00.1,0.46564006
00:00.1,-0.419608762
00:00.1,-0.154606188
00:00.1,0.165631716
00:00.1,0.487772564
00:00.1,-0.239587119
00:00.1,-0.092829488
00:00.1,-0.553167487
00:00.1,-0.598103312
00:00.1,0.406262911
00:00.1,0.678120014
00:00.1,-0.036005061
00:00.1,0.501766449
00:00.1,0.180818013
00:00.1,-0.322559877
00:00.1,0.180697803
00:00.1,0.769018283
00:00.1,-0.01791302
00:00.1,0.782321828
00:00.1,-1.309872552
00:00.1,0.410951252
00:00.1,0.043523534
00:00.1,-0.149503675
00:00.1,0.045880388
00:00.1,-0.993784457
00:00.1,-0.109835944
00:00.1,0.178556286
00:00.1,0.738947022
00:00.1,-0.259135109
00:00.1,-0.404246801
00:00.1,-0.250878522
00:00.1,0.457701059
00:00.1,0.164375555
00:00.1,-0.264880102
00:00.1,0.256633717
00:00.1,0.048538775
00:00.1,0.484322495
00:00.1,-0.351026547
00:00.1,-0.163831073
00:00.1,-0.196054077
00:00.1,-0.731757474
00:00.1,0.148060139
00:00.1,0.130527636
00:00.1,0.002556728
00:00.1,-0.117293567
00:00.1,-0.707685371
00:00.1,-0.210322661
00:00.1,-0.171357258
00:00.1,-0.401138635
00:00.1,-0.080642856
00:00.1,0.202025428
00:00.1,0.943092951
00:00.1,0.087288906
00:00.1,0.128775195
00:00.1,-0.037222958
00:00.1,-0.959385608
00:00.1,-0.013256938
00:00.1,0.030115105
00:00.1,1.231621056
00:00.1,-0.096180482
00:00.1,0.150773671
00:00.1,-0.017355885
00:00.1,-0.584339019
00:00.1,0.571411407
00:00.1,0.375966516
00:00.1,0.395515974
00:00.1,-0.454693727
00:00.1,0.701397155
00:00.1,-0.700925531
00:00.1,0.293428547
00:00.1,1.095227813
00:00.1,-0.495268163
00:00.1,-0.283148865
00:00.1,0.049825683
00:00.1,-0.251737827
00:00.1,-0.775331716
00:00.1,0.034281487
00:00.1,-0.531151857
00:00.1,0.236796215
00:00.1,-0.459712117
00:00.1,0.774967203
00:00.1,-0.391626646
00:00.1,-0.161030758
00:00.1,0.406758609
00:00.1,-0.615432158
00:00.1,0.113729967
00:00.1,0.653571377
00:00.1,-0.803741617
00:00.1,0.092316929
00:00.1,0.129941397
00:00.1,0.390911436
00:00.1,-0.618475355
00:00.1,-0.660228307
00:00.1,0.260970783
00:00.1,0.148492337
00:00.1,0.125246425
00:00.2,0.173224105
00:00.2,-0.340012361
00:00.2,0.116126849
00:00.2,0.146536237
00:00.2,-0.357175709
00:00.2,0.932887256
00:00.2,0.23691646
00:00.2,-0.595651749
00:00.2,0.328276804
00:00.2,-0.487340835
00:00.2,0.393542302
00:00.2,0.57929779
00:00.2,-0.410341159
00:00.2,0.481688065
00:00.2,0.206390463
00:00.2,0.41103008
00:00.2,0.948396491
00:00.2,-0.122694058
00:00.2,-0.376868082
00:00.2,-0.444757215
00:00.2,-0.407905142
00:00.2,-0.038550855
00:00.2,0.170575987
00:00.2,0.1383454
00:00.2,0.413591625
00:00.2,0.006500946
00:00.2,0.726767039
00:00.2,-0.132328417
00:00.2,1.360084583
00:00.2,0.312833674
00:00.2,-0.428578778
00:00.2,-0.535446249
00:00.2,0.241236208
00:00.2,-0.111731393
00:00.2,0.357000247
00:00.2,0.236618812
00:00.2,-0.036414456
00:00.2,-0.423396859
00:00.2,-0.757423612
00:00.2,-0.223257476
00:00.2,0.428199397
00:00.2,0.107046872
00:00.2,-0.622869389
00:00.2,0.086590463
00:00.2,0.19265869
00:00.2,-0.441928718
00:00.2,0.076862553
00:00.2,0.029104359
00:00.2,-0.571485149
00:00.2,0.17889368
00:00.2,0.280392263
00:00.2,0.541525622
00:00.2,0.526901026
00:00.2,-0.688834684
00:00.2,-0.46891252
00:00.2,0.257517634
00:00.2,0.256892975
00:00.2,0.257523843
00:00.2,1.926365745
00:00.2,0.285445255
00:00.2,0.56778282
00:00.2,0.477000882
00:00.2,0.325695626
00:00.2,-0.157634622
00:00.2,0.37948461
00:00.2,-0.386412607
00:00.2,-0.118409303
00:00.2,-0.242681774
00:00.2,0.04093707
00:00.2,1.157329283
00:00.2,-0.933632596
00:00.2,0.343130095
00:00.2,-0.806357936
00:00.2,-0.235965933
00:00.2,0.544475298
00:00.2,0.03214001
00:00.2,-0.538872389
00:00.2,-0.357651855
00:00.2,0.339798874
00:00.2,-0.365183316
00:00.2,0.108229295
00:00.2,0.02278592
00:00.2,-0.325800174
00:00.2,1.071972045
00:00.2,0.316959511
00:00.2,-1.012571293
00:00.2,0.093227157
00:00.2,-0.330893232
00:00.2,0.426216667
00:00.2,-0.396260369
00:00.2,-0.057368221
00:00.2,0.252493639
00:00.2,0.432877597
00:00.2,-0.600148204
00:00.2,-0.167250618
00:00.2,-0.237472656
00:00.2,-0.326664616
00:00.2,0.88272712
00:00.2,0.202490855
00:00.2,-0.630441977
00:00.3,0.458930974
00:00.3,1.061078099
00:00.3,0.51623263
00:00.3,-0.759684983
00:00.3,-0.242117036
00:00.3,0.633455575
00:00.3,-0.353834733
00:00.3,0.221909714
00:00.3,0.387317027
00:00.3,-0.463465236
00:00.3,-0.029762678
00:00.3,-1.62063367
00:00.3,-0.512193821
00:00.3,-0.126284076
00:00.3,-0.623891591
00:00.3,0.816205652
00:00.3,-0.715070689
00:00.3,-0.220022243
00:00.3,0.065370289
00:00.3,0.720636645
00:00.3,-0.717931076
00:00.3,0.581581876
00:00.3,0.005116531
00:00.3,-0.490754326
00:00.3,0.231051737
00:00.3,0.099529848
00:00.3,-0.300108439
00:00.3,0.034901042
00:00.3,-0.192656798
00:00.3,0.056758673
00:00.3,0.331065337
00:00.3,0.793008408
00:00.3,-0.618907749
00:00.3,1.066516687
00:00.3,-0.9760439
00:00.3,-0.075892548
00:00.3,0.294158603
00:00.3,0.140495934
00:00.3,-0.31134976
00:00.3,-0.104061125
00:00.3,-0.246500467
00:00.3,-0.294682378
00:00.3,0.424801049
00:00.3,0.178507743
00:00.3,-0.346454798
00:00.3,0.449799938
00:00.3,0.15364976
00:00.3,0.406431059
00:00.3,0.314814421
00:00.3,-0.414497505
00:00.3,-0.28009052
00:00.3,0.373646803
00:00.3,0.305185133
00:00.3,-0.010450797
00:00.3,0.058663692
00:00.3,0.638832448
00:00.3,-0.295785694
00:00.3,0.273548691
00:00.3,-0.101096326
00:00.3,-0.108840602
00:00.3,0.549388426
00:00.3,0.412708174
00:00.3,0.406754818
00:00.3,0.652739404
00:00.3,0.010501921
00:00.3,0.340976486
00:00.3,-0.155133378
00:00.3,0.162083176
00:00.3,-0.065071527
00:00.3,0.048497982
00:00.3,0.297578513
00:00.3,-0.409110342
00:00.3,1.046193638
00:00.3,-0.503008691
00:00.3,-0.607094306
00:00.3,0.579055437
00:00.3,0.395831347
00:00.3,0.312059909
00:00.3,0.314172755
00:00.3,-0.006123386
00:00.3,-0.448627186
00:00.3,0.037902279
00:00.3,-0.338580856
00:00.3,0.487559867
00:00.3,-0.073528691
00:00.3,-0.412748598
00:00.3,-0.160692921
00:00.3,0.206465727
00:00.3,-0.281862276
00:00.3,-0.411110198
00:00.3,0.121843606
00:00.3,0.122483286
00:00.3,-0.253471588
00:00.3,-0.235519153
00:00.3,0.116024969
00:00.3,-0.724042171
00:00.3,-0.703731887
00:00.3,-0.359222111
00:00.3,-0.106723576
00:00.3,0.155453783
00:00.4,0.737678108
00:00.4,0.428829812
00:00.4,-0.079969265
00:00.4,-0.009508104
00:00.4,-0.501264682
00:00.4,-0.009256568
00:00.4,-0.144329319
00:00.4,0.16135928
00:00.4,-0.413615472
00:00.4,0.259673257
00:00.4,0.766369457
00:00.4,-0.054380074
00:00.4,0.200855861
00:00.4,0.345071996
00:00.4,-0.200610236
00:00.4,0.112046241
00:00.4,0.0062962
00:00.4,0.048838049
00:00.4,-0.386504892
00:00.4,0.012255087
00:00.4,0.248999146
00:00.4,0.725571804
00:00.4,0.479635413
00:00.4,1.076591229
00:00.4,-0.383673781
00:00.4,0.436160318
00:00.4,0.091671003
00:00.4,1.094901467
00:00.4,-0.404149143
00:00.4,-0.419860921
00:00.4,-0.299696323
00:00.4,-1.061947862
00:00.4,-0.262877511
00:00.4,-0.379566331
00:00.4,0.075196893
00:00.4,0.170877988
00:00.4,0.93808542
00:00.4,0.475211919
00:00.4,-0.288451828
00:00.4,-0.449207336
00:00.4,0.245959586
00:00.4,-0.660116604
00:00.4,0.915729383
00:00.4,0.58972006
00:00.4,-0.234587826
00:00.4,-0.856567265
00:00.4,0.676936187
00:00.4,-0.057269923
00:00.4,0.618908156
00:00.4,-0.797213829
00:00.4,-0.299687511
00:00.4,0.00262185
00:00.4,0.023490297
00:00.4,-0.225032736
00:00.4,0.311424966
00:00.4,-0.533810215
00:00.4,-0.071189743
00:00.4,0.060147816
00:00.4,0.257219417
00:00.4,0.355807439
00:00.4,-0.562321046
00:00.4,-0.767057085
00:00.4,0.638838411
00:00.4,0.166157006
00:00.4,-0.374243268
00:00.4,0.775575988
00:00.4,0.057837317
00:00.4,0.589648592
00:00.4,0.033759241
00:00.4,1.030373962
00:00.4,0.877670421
00:00.4,-0.124482074
00:00.4,0.485785475
00:00.4,0.322687975
00:00.4,0.684315779
00:00.4,-0.48246173
00:00.4,0.34302573
00:00.4,0.529212243
00:00.4,-0.879369743
00:00.4,-0.591629256
00:00.4,-1.019616089
00:00.4,-0.134703417
00:00.4,0.358771128
00:00.4,0.751178526
00:00.4,0.03704739
00:00.4,0.814307773
00:00.4,-0.690050729
00:00.4,-0.85169122
00:00.4,-0.027773849
00:00.4,0.192032724
00:00.4,-0.016347374
00:00.4,-1.03372105
00:00.4,-0.04456002
00:00.4,-0.65223475
00:00.4,0.334836274
00:00.4,0.183299123
00:00.4,-0.469939893
00:00.4,-0.256933459
00:00.4,-0.529606761
00:00.4,-0.031339549
00:00.5,0.47757116
00:00.5,-0.492863023
00:00.5,0.252023258
00:00.5,-0.265128809
00:00.5,-0.396436416
00:00.5,-0.05351518
00:00.5,-0.517621161
00:00.5,-0.276824653
00:00.5,-0.598938946
00:00.5,0.982362566
00:00.5,0.017631776
00:00.5,-0.349862754
00:00.5,0.106989955
00:00.5,-0.056164025
00:00.5,-0.1104848
00:00.5,0.30708335
00:00.5,0.378753855
00:00.5,-0.265250574
00:00.5,-0.28790912
00:00.5,-0.137525849
00:00.5,-1.150960582
00:00.5,-0.757595531
00:00.5,0.683437134
00:00.5,0.822483857
00:00.5,-0.12451802
00:00.5,0.288278482
00:00.5,0.155625077
00:00.5,1.539440404
00:00.5,0.559787456
00:00.5,-0.063958796
00:00.5,-0.47777022
00:00.5,-0.80322316
00:00.5,0.101731818
00:00.5,-0.378175373
00:00.5,-0.711126855
00:00.5,-0.323286442
00:00.5,-0.540774002
00:00.5,0.843570818
00:00.5,0.440819878
00:00.5,-0.003986321
00:00.5,0.739972069
00:00.5,0.038684154
00:00.5,-0.430642101
00:00.5,0.761562039
00:00.5,0.269455022
00:00.5,-0.518623077
00:00.5,-0.095169339
00:00.5,-0.437809127
00:00.5,-0.691399865
00:00.5,0.463088774
00:00.5,0.95470832
00:00.5,-0.699283787
00:00.5,0.281484618
00:00.5,-0.325321285
00:00.5,-0.243562692
00:00.5,-0.296196962
00:00.5,-0.431995385
00:00.5,0.024260814
00:00.5,-0.415475058
00:00.5,0.135228413
00:00.5,-0.025119055
00:00.5,-0.119474023
00:00.5,-0.453781831
00:00.5,-0.288385665
00:00.5,0.377695613
00:00.5,0.250458594
00:00.5,-0.488777622
00:00.5,0.049666153
00:00.5,0.375693562
00:00.5,-0.834702641
00:00.5,0.271680096
00:00.5,-0.331311879
00:00.5,0.285299334
00:00.5,-0.381629578
00:00.5,-0.90244105
00:00.5,-0.813771219
00:00.5,0.024042473
00:00.5,0.129861251
00:00.5,-0.452158313
00:00.5,0.319296229
00:00.5,-0.830760031
00:00.5,-0.033039899
00:00.5,-0.6055081
00:00.5,-0.325918054
00:00.5,0.023699336
00:00.5,-0.430206683
00:00.5,-0.192277772
00:00.5,0.503146405
00:00.5,-0.288445935
00:00.5,0.417846056
00:00.5,-0.564853427
00:00.5,0.264902089
00:00.5,0.72078431
00:00.5,-1.23582225
00:00.5,-0.398447628
00:00.5,0.288536064
00:00.5,-0.101522693
00:00.5,0.185572937
00:00.5,-0.301992593
00:00.5,0.043294894
00:00.6,-0.077838618
00:00.6,0.583891031
00:00.6,0.127210422
00:00.6,0.168801331
00:00.6,-0.205938483
00:00.6,-0.243803112
00:00.6,-0.216279094
00:00.6,0.197226071
00:00.6,-0.21049224
00:00.6,0.144887428
00:00.6,1.037700399
00:00.6,0.435562352
00:00.6,-0.163011766
00:00.6,0.600606961
00:00.6,-0.204037687
00:00.6,-1.019062268
00:00.6,-0.504043155
00:00.6,-0.935395961
00:00.6,-0.175756742
00:00.6,0.00920919
00:00.6,0.838218656
00:00.6,0.163463687
00:00.6,-0.109550264
00:00.6,0.414702791
00:00.6,-1.105567655
00:00.6,0.117807279
00:00.6,0.385432597
00:00.6,-0.739293123
00:00.6,0.571877022
00:00.6,0.169248204
00:00.6,-0.207643957
00:00.6,0.316390933
00:00.6,1.135346429
00:00.6,0.090933128
00:00.6,0.124110293
00:00.6,-0.22968045
00:00.6,-0.424922185
00:00.6,0.415167908
00:00.6,-0.428041913
00:00.6,0.035783119
00:00.6,-0.238828723
00:00.6,0.239489913
00:00.6,0.166831053
00:00.6,0.518769972
00:00.6,-0.255008199
00:00.6,-0.134937468
00:00.6,-0.489381858
00:00.6,-0.22214663
00:00.6,0.188650247
00:00.6,0.378494308
00:00.6,-0.461082662
00:00.6,0.43480296
00:00.6,0.677818929
00:00.6,0.206717452
00:00.6,0.938397906
00:00.6,-0.3868946
00:00.6,-0.622327352
00:00.6,-0.889360124
00:00.6,0.748022156
00:00.6,0.327182828
00:00.6,-0.027792335
00:00.6,0.139984313
00:00.6,-0.562744524
00:00.6,1.22287599
00:00.6,0.064610591
00:00.6,0.054697397
00:00.6,0.362883312
00:00.6,0.240504616
00:00.6,0.111942012
00:00.6,-0.395237228
00:00.6,0.235734179
00:00.6,0.941012248
00:00.6,0.672710023
00:00.6,0.796593313
00:00.6,-0.255607838
00:00.6,-0.49480241
00:00.6,-0.06289346
00:00.6,0.027862456
00:00.6,0.547095759
00:00.6,-0.846232315
00:00.6,0.76477516
00:00.6,-0.079003949
00:00.6,-0.213440535
00:00.6,-0.506052188
00:00.6,-0.827428336
00:00.6,0.411585292
00:00.6,0.036658984
00:00.6,-0.64498045
00:00.6,-0.647539386
00:00.6,-0.16789235
00:00.6,0.834510763
00:00.6,-0.129795676
00:00.6,-0.751571477
00:00.6,-0.122871532
00:00.6,-0.136361785
00:00.6,-1.348443321
00:00.6,-0.027147433
00:00.6,-0.115467265
00:00.6,0.348103182
00:00.6,0.924478047
00:00.7,0.563282515
00:00.7,-0.134444345
00:00.7,-0.553262954
00:00.7,1.286679902
00:00.7,0.029609217
00:00.7,0.006964646
00:00.7,-0.012062544
00:00.7,0.09904238
00:00.7,-0.072180206
00:00.7,-0.286831003
00:00.7,-0.273429471
00:00.7,-0.016376635
00:00.7,-0.271712386
00:00.7,-0.356422891
00:00.7,0.053215114
00:00.7,-0.127488609
00:00.7,0.751996494
00:00.7,-1.325484904
00:00.7,0.545753426
00:00.7,0.623042596
00:00.7,-1.036695116
00:00.7,-0.171343797
00:00.7,-0.185720433
00:00.7,-0.703755847
00:00.7,-0.388908344
00:00.7,-0.555287923
00:00.7,0.876135222
00:00.7,0.467839197
00:00.7,0.635777547
00:00.7,0.360836032
00:00.7,-0.564525886
00:00.7,-0.262260133
00:00.7,0.244687281
00:00.7,-0.611063904
00:00.7,0.356499215
00:00.7,-0.120162699
00:00.7,-0.187410404
00:00.7,0.355479984
00:00.7,0.222131656
00:00.7,-0.180483083
00:00.7,0.579664902
00:00.7,-0.540531664
00:00.7,0.307967803
00:00.7,0.296550629
00:00.7,-0.15477322
00:00.7,0.163066511
00:00.7,-0.625556788
00:00.7,0.46201351
00:00.7,-0.092451068
00:00.7,-0.26136151
00:00.7,0.524504613
00:00.7,-0.352171845
00:00.7,-0.704230648
00:00.7,-0.778314587
00:00.7,0.303004976
00:00.7,-0.640214676
00:00.7,0.877397091
00:00.7,-1.040964704
00:00.7,0.848228184
00:00.7,0.105508734
00:00.7,-0.048356556
00:00.7,-0.272459543
00:00.7,0.199568057
00:00.7,-0.018817351
00:00.7,0.551650941
00:00.7,0.057113824
00:00.7,0.075150881
00:00.7,-0.181806106
00:00.7,-0.028472812
00:00.7,0.153900884
00:00.7,-0.855084196
00:00.7,-0.674092711
00:00.7,0.371632047
00:00.7,0.085432719
00:00.7,-0.091991668
00:00.7,0.009216967
00:00.7,0.173790853
00:00.7,-0.26987984
00:00.7,-0.389152363
00:00.7,0.097922628
00:00.7,-0.489186389
00:00.7,0.204126378
00:00.7,-0.851291802
00:00.7,0.514577819
00:00.7,0.236298741
00:00.7,0.128014867
00:00.7,0.491345492
00:00.7,0.832737222
00:00.7,0.507185033
00:00.7,-0.920437116
00:00.7,-0.639788483
00:00.7,-0.312409289
00:00.7,0.013045525
00:00.7,0.25882951
00:00.7,-0.362871907
00:00.7,0.093383382
00:00.7,-0.377691466
00:00.7,-0.305758901
00:00.7,-0.703330548
00:00.7,-0.461616623
00:00.8,-0.675842303
00:00.8,-0.487936626
00:00.8,0.526820898
00:00.8,-0.474699444
00:00.8,1.316191032
00:00.8,0.24665895
00:00.8,0.092418062
00:00.8,-0.42917889
00:00.8,0.35015494
00:00.8,-0.287818913
00:00.8,0.061004907
00:00.8,1.280042269
00:00.8,-0.04802995
00:00.8,0.574636663
00:00.8,-0.351588213
00:00.8,-0.017494245
00:00.8,0.885400318
00:00.8,-0.313483529
00:00.8,0.906224279
00:00.8,0.353875968
00:00.8,-0.281233388
00:00.8,0.31620387
00:00.8,0.486277225
00:00.8,0.310904981
00:00.8,-0.78511236
00:00.8,-0.363568588
00:00.8,-0.123759318
00:00.8,-0.037216715
00:00.8,0.310336049
00:00.8,0.0888505
00:00.8,-0.667672179
00:00.8,0.190098926
00:00.8,0.305292873
00:00.8,0.279895224
00:00.8,0.540390363
00:00.8,0.416961077
00:00.8,0.22959004
00:00.8,-0.035082856
00:00.8,-0.830480467
00:00.8,0.21480911
00:00.8,0.103843844
00:00.8,0.135789419
00:00.8,-0.638374288
00:00.8,-0.54052827
00:00.8,0.526576427
00:00.8,-0.019777577
00:00.8,0.340750349
00:00.8,0.014159188
00:00.8,0.01487807
00:00.8,0.469141903
00:00.8,-0.258022364
00:00.8,0.048060388
00:00.8,-0.231137644
00:00.8,-0.217248114
00:00.8,-0.154586062
00:00.8,0.111066886
00:00.8,-0.239374311
00:00.8,0.627878063
00:00.8,-0.447303651
00:00.8,-0.093435822
00:00.8,-0.219865529
00:00.8,0.723488942
00:00.8,0.098277388
00:00.8,0.51592227
00:00.8,-0.742780187
00:00.8,0.133525133
00:00.8,0.444815398
00:00.8,0.041141995
00:00.8,0.532740188
00:00.8,-0.258644225
00:00.8,0.70467372
00:00.8,1.149449062
00:00.8,-0.18141928
00:00.8,-0.222751261
00:00.8,0.726692239
00:00.8,0.789786073
00:00.8,-0.261430014
00:00.8,-0.210093409
00:00.8,-0.140892304
00:00.8,-0.672225256
00:00.8,-0.459325973
00:00.8,-0.502070383
00:00.8,-0.383898783
00:00.8,-0.017342444
00:00.8,0.117107366
00:00.8,0.775250246
00:00.8,-0.49917702
00:00.8,0.492161199
00:00.8,-0.106994422
00:00.8,-0.024731855
00:00.8,0.337409746
00:00.8,-0.561361011
00:00.8,0.191204873
00:00.8,0.083226104
00:00.8,0.246225632
00:00.8,0.144584322
00:00.8,1.22765007
00:00.8,-0.318869992
00:00.8,-0.265498478
00:00.8,-0.311570263
00:00.9,-0.27773856
00:00.9,-0.318693564
00:00.9,0.594508266
00:00.9,0.710252124
00:00.9,-0.285373147
00:00.9,-0.416177787
00:00.9,0.235707778
00:00.9,-0.276111522
00:00.9,0.316465909
00:00.9,0.10146151
00:00.9,-0.757872057
00:00.9,0.773752601
00:00.9,0.897938837
00:00.9,-0.306394345
00:00.9,-0.19385078
00:00.9,0.142932695
00:00.9,0.167228395
00:00.9,0.329272136
00:00.9,1.005102269
00:00.9,-0.088473614
00:00.9,-0.399148622
00:00.9,-0.689659614
00:00.9,-0.36546502
00:00.9,-0.016563486
00:00.9,0.897278932
00:00.9,-0.25880565
00:00.9,0.111893976
00:00.9,-0.008211448
00:00.9,0.594196637
00:00.9,1.263466213
00:00.9,-0.265434386
00:00.9,-0.244719721
00:00.9,0.522080439
00:00.9,0.340945745
00:00.9,0.923353663
00:00.9,0.291964093
00:00.9,-0.179646045
00:00.9,0.295327415
00:00.9,0.55435179
00:00.9,0.410241091
00:00.9,0.253637016
00:00.9,0.533337345
00:00.9,0.584647795
00:00.9,0.691079496
00:00.9,0.324354944
00:00.9,-0.08355904
00:00.9,0.073356843
00:00.9,0.603254483
00:00.9,-0.408467835
00:00.9,0.184336654
00:00.9,-0.196669406
00:00.9,0.014372411
00:00.9,0.639225931
00:00.9,0.095549534
00:00.9,0.023218274
00:00.9,-0.67992807
00:00.9,0.373126783
00:00.9,0.322742091
00:00.9,1.081627362
00:00.9,-0.153889117
00:00.9,0.109575164
00:00.9,0.124691842
00:00.9,0.78872664
00:00.9,-0.047647766
00:00.9,0.139510763
00:00.9,0.303948255
00:00.9,0.093304562
00:00.9,-0.223216807
00:00.9,0.097044996
00:00.9,0.536815875
00:00.9,-0.51325765
00:00.9,0.066484837
00:00.9,-0.350060407
00:00.9,0.597523314
00:00.9,-0.761593452
00:00.9,-0.279460924
00:00.9,0.188605938
00:00.9,0.782762015
00:00.9,-0.032875131
00:00.9,-0.277599763
00:00.9,0.940578535
00:00.9,-0.72400695
00:00.9,-1.099402978
00:00.9,0.220007225
00:00.9,-0.251027112
00:00.9,-0.510616409
00:00.9,0.354178224
00:00.9,0.121900357
00:00.9,-0.282039315
00:00.9,-0.640152199
00:00.9,0.436228664
00:00.9,0.325100589
00:00.9,-0.049587932
00:00.9,0.923318498
00:00.9,-0.535042383
00:00.9,-0.762762585
00:00.9,-0.345954035
00:00.9,-0.022793008
00:00.9,0.121669725
00:00.9,-0.120618029
00:01.0,0.176027698
00:01.0,-0.625769712
00:01.0,0.721882302
00:01.0,-0.041075589
00:01.0,0.558647916
00:01.0,0.171362673
00:01.0,0.22837661
00:01.0,0.28488364
00:01.0,0.22385428
00:01.0,0.32136138
00:01.0,0.664576265
00:01.0,0.098260585
00:01.0,0.354501879
00:01.0,-0.044867847
00:01.0,0.720058608
00:01.0,-0.338196151
00:01.0,0.900470216
00:01.0,-0.020078975
00:01.0,-0.715387551
00:01.0,0.064052207
00:01.0,-0.340525829
00:01.0,0.420321774
00:01.0,-0.32631199
00:01.0,-0.223091717
00:01.0,-0.944770365
00:01.0,-0.22615316
00:01.0,-1.211939663
00:01.0,-0.791951412
00:01.0,0.380207328
00:01.0,0.392900079
00:01.0,0.212728781
00:01.0,-0.483488072
00:01.0,-0.023855678
00:01.0,-0.00180127
00:01.0,-0.579182345
00:01.0,0.751699151
00:01.0,0.438681145
00:01.0,-0.110482087
00:01.0,0.013442919
00:01.0,0.104191404
00:01.0,-1.020867434
00:01.0,-0.123588691
00:01.0,-0.340992124
00:01.0,-0.500810005
00:01.0,-0.140550146
00:01.0,0.898843263
00:01.0,0.320421431
00:01.0,-0.285589495
00:01.0,0.286291391
00:01.0,0.699677718
00:01.0,0.462316841
00:01.0,0.029815185
00:01.0,-0.323468389
00:01.0,0.349111657
00:01.0,0.196742693
00:01.0,0.44759661
00:01.0,0.317585901
00:01.0,0.524776358
00:01.0,-0.267617606
00:01.0,0.658697033
00:01.0,0.098799802
00:01.0,1.037630436
00:01.0,-0.344593909
00:01.0,0.867981902
00:01.0,0.098955392
00:01.0,-0.325709002
00:01.0,-0.241942917
00:01.0,-0.160173654
00:01.0,0.212082973
00:01.0,0.261417744
00:01.0,-0.286850002
00:01.0,-0.012177296
00:01.0,1.071135179
00:01.0,0.863771585
00:01.0,0.218161835
00:01.0,0.019001739
00:01.0,0.060015663
00:01.0,0.306758986
00:01.0,-0.511396283
00:01.0,-0.128688269
00:01.0,-0.834292037
00:01.0,0.199611561
00:01.0,0.32359797
00:01.0,-0.241593231
00:01.0,0.786993382
00:01.0,-0.612882832
00:01.0,-0.73218744
00:01.0,0.112225909
00:01.0,0.523549151
00:01.0,0.841963846
00:01.0,-0.229442131
00:01.0,0.539340417
00:01.0,-0.019254235
00:01.0,-0.08631365
00:01.0,0.441829969
00:01.0,0.326161439
00:01.0,-0.788196078
00:01.0,0.738270175
00:01.0,0.690045677
00:01.0,-0.312781351
00:01.1,0.197901767
00:01.1,0.247015093
00:01.1,0.130336883
00:01.1,-0.275152577
00:01.1,-0.335811684
00:01.1,-0.012777035
00:01.1,0.58636451
00:01.1,0.271800077
00:01.1,-0.185307166
00:01.1,0.385849355
00:01.1,-1.42427131
00:01.1,0.57438285
00:01.1,-0.869856889
00:01.1,-0.181220471
00:01.1,-0.559834947
00:01.1,-0.647340738
00:01.1,0.580413394
00:01.1,-0.233850601
00:01.1,0.173251941
00:01.1,-0.023460289
00:01.1,0.238520414
00:01.1,0.038410946
00:01.1,-0.641496112
00:01.1,0.49813341
00:01.1,-0.246878292
00:01.1,-0.778290949
00:01.1,-0.21405758
00:01.1,0.750379895
00:01.1,0.425110871
00:01.1,-0.174326067
00:01.1,-0.174628852
00:01.1,-0.160817526
00:01.1,1.038373992
00:01.1,0.190967726
00:01.1,0.215020824
00:01.1,0.515141727
00:01.1,0.11939458
00:01.1,-0.129521073
00:01.1,-0.098174925
00:01.1,-0.03580063
00:01.1,-0.018611118
00:01.1,0.363814772
00:01.1,0.025972943
00:01.1,0.366320039
00:01.1,-0.04035829
00:01.1,0.039317595
00:01.1,-0.999100342
00:01.1,0.458163837
00:01.1,0.173244238
00:01.1,0.499005055
00:01.1,-1.448127689
00:01.1,1.044187352
00:01.1,-0.069794814
00:01.1,0.554091408
00:01.1,-0.519952964
00:01.1,0.306386953
00:01.1,-0.526707782
00:01.1,-0.31188448
00:01.1,0.957015677
00:01.1,-0.0953412
00:01.1,0.108716437
00:01.1,0.435033865
00:01.1,0.247840944
00:01.1,0.075209453
00:01.1,0.182480501
00:01.1,1.201707793
00:01.1,-0.028809399
00:01.1,0.100549523
00:01.1,0.525327198
00:01.1,0.552762966
00:01.1,0.593515153
00:01.1,0.319365111
00:01.1,-0.571502456
00:01.1,0.816715766
00:01.1,-0.573172697
00:01.1,0.151317733
00:01.1,-0.377137925
00:01.1,-0.032069173
00:01.1,0.164381205
00:01.1,0.160678608
00:01.1,0.210960377
00:01.1,0.806855635
00:01.1,0.226767151
00:01.1,-0.122078318
00:01.1,0.482043584
00:01.1,0.594735244
00:01.1,-0.613803908
00:01.1,0.298700035
00:01.1,0.350586371
00:01.1,-0.148781752
00:01.1,0.687853407
00:01.1,-0.075027794
00:01.1,0.062788227
00:01.1,-0.086535912
00:01.1,0.007789524
00:01.1,-0.548137543
00:01.1,-0.720025441
00:01.1,0.797252532
00:01.1,-0.423480674
00:01.1,-0.495696175
00:01.2,-1.076695057
00:01.2,-0.319480874
00:01.2,-0.661544897
00:01.2,0.82100758
00:01.2,0.504908545
00:01.2,-0.344075173
00:01.2,1.126217903
00:01.2,0.490882743
00:01.2,-0.162415692
00:01.2,-1.249702857
00:01.2,1.145471286
00:01.2,-0.694786233
00:01.2,-0.822699373
00:01.2,0.511285216
00:01.2,1.219876203
00:01.2,0.692136409
00:01.2,0.28195456
00:01.2,0.297377171
00:01.2,0.426707779
00:01.2,0.379464295
00:01.2,0.140595712
00:01.2,0.052100552
00:01.2,-0.031296564
00:01.2,-0.376982294
00:01.2,-0.140337538
00:01.2,-0.846478407
00:01.2,-0.049169813
00:01.2,-0.494295554
00:01.2,-0.551794659
00:01.2,0.089947076
00:01.2,0.696001143
00:01.2,0.459158303
00:01.2,-0.785250302
00:01.2,-0.494814068
00:01.2,0.470385594
00:01.2,-0.491243697
00:01.2,-0.112316575
00:01.2,0.27502605
00:01.2,-0.484172227
00:01.2,0.052687753
00:01.2,-0.667012747
00:01.2,-0.300683822
00:01.2,0.159890967
00:01.2,-0.796496867
00:01.2,0.220237369
00:01.2,-0.009818899
00:01.2,0.276244977
00:01.2,0.111957067
00:01.2,0.682070215
00:01.2,0.062612251
00:01.2,-0.214702771
00:01.2,0.061148752
00:01.2,0.271649015
00:01.2,0.024430035
00:01.2,0.020295846
00:01.2,-0.350995844
00:01.2,-0.331450459
00:01.2,-0.701302636
00:01.2,0.874788372
00:01.2,-0.621931618
00:01.2,-0.346452599
00:01.2,-0.359203633
00:01.2,0.447462188
00:01.2,-0.147474839
00:01.2,0.623871036
00:01.2,-0.336745312
00:01.2,0.139497081
00:01.2,-0.417673527
00:01.2,1.072574564
00:01.2,-0.59379921
00:01.2,0.154910355
00:01.2,0.31688844
00:01.2,0.206899549
00:01.2,-0.092643829
00:01.2,-0.06491035
00:01.2,0.021905736
00:01.2,-0.073501001
00:01.2,0.481939558
00:01.2,1.105261501
00:01.2,-0.278745893
00:01.2,-0.68490149
00:01.2,-0.044141024
00:01.2,1.289854669
00:01.2,-0.401837284
00:01.2,0.819558403
00:01.2,0.838850407
00:01.2,-0.276794121
00:01.2,0.28449154
00:01.2,0.814198312
00:01.2,-0.18956387
00:01.2,-0.10179018
00:01.2,-0.290840457
00:01.2,-0.507378365
00:01.2,-0.324638773
00:01.2,-0.611970133
00:01.2,0.017041734
00:01.2,-0.384986616
00:01.2,0.116892956
00:01.2,-0.777947823
00:01.2,0.165440116
00:01.3,0.416764481
00:01.3,-0.996867821
00:01.3,0.187028285
00:01.3,0.613834496
00:01.3,-0.604820509
00:01.3,0.836286193
00:01.3,0.209509505
00:01.3,-0.352505928
00:01.3,-0.027884539
00:01.3,0.279163456
00:01.3,0.038002696
00:01.3,0.269377996
00:01.3,-0.460336797
00:01.3,0.084680412
00:01.3,-0.706857248
00:01.3,-0.055613031
00:01.3,-0.451953821
00:01.3,-0.367764971
00:01.3,0.618046588
00:01.3,0.54565506
00:01.3,0.30456906
00:01.3,-0.546156382
00:01.3,-0.158204225
00:01.3,0.60654885
00:01.3,0.070858457
00:01.3,1.15966477
00:01.3,0.19665892
00:01.3,0.096024558
00:01.3,-0.154558232
00:01.3,0.066770452
00:01.3,-0.076234918
00:01.3,0.354054338
00:01.3,0.478351158
00:01.3,-0.39299473
00:01.3,-0.665616477
00:01.3,-0.918102687
00:01.3,0.253995663
00:01.3,-0.551683303
00:01.3,-1.076445296
00:01.3,0.194289302
00:01.3,1.246499759
00:01.3,-0.003035456
00:01.3,0.419245387
00:01.3,0.040914679
00:01.3,-0.049444827
00:01.3,0.459538241
00:01.3,-0.145137272
00:01.3,0.133696157
00:01.3,0.160848903
00:01.3,-0.334045227
00:01.3,0.496021175
00:01.3,-0.087479878
00:01.3,-0.37787258
00:01.3,0.268254922
00:01.3,-0.449233991
00:01.3,0.014090579
00:01.3,-0.004559498
00:01.3,0.542947783
00:01.3,0.237349116
00:01.3,-0.012513479
00:01.3,0.40888315
00:01.3,0.695103775
00:01.3,0.278905153
00:01.3,0.00517631
00:01.3,-0.655918116
00:01.3,-0.532556832
00:01.3,-0.152612352
00:01.3,-0.304756101
00:01.3,-0.093485651
00:01.3,0.028324962
00:01.3,0.264846377
00:01.3,-0.035249389
00:01.3,0.243250822
00:01.3,0.032237207
00:01.3,-0.987733283
00:01.3,-0.469667697
00:01.3,-0.072043778
00:01.3,-0.604847371
00:01.3,0.299964365
00:01.3,0.765375416
00:01.3,0.609380926
00:01.3,-0.106721435
00:01.3,0.745363068
00:01.3,0.074333729
00:01.3,-0.168542986
00:01.3,-0.306701332
00:01.3,-0.151234843
00:01.3,-0.194088409
00:01.3,0.085208111
00:01.3,0.080286991
00:01.3,0.00152301
00:01.3,0.218469085
00:01.3,0.595323137
00:01.3,0.474777068
00:01.3,-0.742448984
00:01.3,-1.276960567
00:01.3,0.467159956
00:01.3,-0.683439349
00:01.3,-0.112382701
00:01.3,-0.585056513
00:01.4,-0.900990219
00:01.4,0.270731364
00:01.4,0.37957758
00:01.4,-0.2882552
00:01.4,-1.295521146
00:01.4,-0.273122224
00:01.4,0.195902003
00:01.4,-0.739455784
00:01.4,0.09167996
00:01.4,-0.007654925
00:01.4,0.28964575
00:01.4,0.059790184
00:01.4,-0.48653447
00:01.4,0.598285751
00:01.4,-0.079264787
00:01.4,-0.01365227
00:01.4,-0.46663398
00:01.4,-0.221641126
00:01.4,-0.442401357
00:01.4,-0.08647303
00:01.4,0.85585424
00:01.4,-0.685950571
00:01.4,-0.806780699
00:01.4,0.735585164
00:01.4,-0.104661839
00:01.4,-0.334536369
00:01.4,0.519952344
00:01.4,-0.30280777
00:01.4,0.913004857
00:01.4,0.338962936
00:01.4,-0.243955704
00:01.4,1.078654107
00:01.4,-0.302857462
00:01.4,0.371047686
00:01.4,0.14964629
00:01.4,0.650870645
00:01.4,0.780755598
00:01.4,0.016002075
00:01.4,-0.376708935
00:01.4,0.229986071
00:01.4,-0.338857685
00:01.4,1.006693624
00:01.4,0.068267666
00:01.4,-0.182660776
00:01.4,0.092340153
00:01.4,-0.673563145
00:01.4,-0.485807019
00:01.4,0.600206954
00:01.4,-0.328447139
00:01.4,-0.523455491
00:01.4,0.268326376
00:01.4,0.592852077
00:01.4,0.359476655
00:01.4,0.498023843
00:01.4,-0.378397544
00:01.4,-0.710905333
00:01.4,0.750666826
00:01.4,-0.161339919
00:01.4,-0.125416508
00:01.4,0.664097071
00:01.4,0.278115005
00:01.4,0.227943886
00:01.4,1.082501172
00:01.4,-0.321759115
00:01.4,0.463920064
00:01.4,0.028506562
00:01.4,0.134296139
00:01.4,0.764234213
00:01.4,0.253917878
00:01.4,0.26914804
00:01.4,0.536253669
00:01.4,-0.182476365
00:01.4,-0.419604834
00:01.4,-0.522404597
00:01.4,-0.983178295
00:01.4,1.028103565
00:01.4,-0.551604183
00:01.4,-0.110626812
00:01.4,-0.13840665
00:01.4,0.153703349
00:01.4,0.407868606
00:01.4,0.430236744
00:01.4,-0.291538719
00:01.4,-0.083560857
00:01.4,0.141289975
00:01.4,-0.124345563
00:01.4,0.803672788
00:01.4,0.245487476
00:01.4,0.367438893
00:01.4,0.331440634
00:01.4,0.586736929
00:01.4,0.090510779
00:01.4,-0.648415974
00:01.4,0.199843976
00:01.4,-0.325678447
00:01.4,-0.264308341
00:01.4,0.293182009
00:01.4,0.619141536
00:01.4,0.010635788
00:01.5,0.154416506
00:01.5,0.851107472
00:01.5,0.12037659
00:01.5,1.300841557
00:01.5,0.282754823
00:01.5,-0.88038138
00:01.5,0.376670811
00:01.5,0.190579192
00:01.5,0.644876377
00:01.5,0.336590676
00:01.5,-0.069227992
00:01.5,-0.612149118
00:01.5,-0.104511629
00:01.5,-0.425260227
00:01.5,-0.290261725
00:01.5,0.294289202
00:01.5,0.834952252
00:01.5,0.197335765
00:01.5,-0.597941531
00:01.5,0.222301334
00:01.5,0.598315743
00:01.5,-0.304891452
00:01.5,-0.067008583
00:01.5,0.007344097
00:01.5,-0.392449157
00:01.5,0.324140217
00:01.5,-0.060474074
00:01.5,0.209766222
00:01.5,-0.443746089
00:01.5,-0.21872915
00:01.5,0.361190679
00:01.5,-0.186416576
00:01.5,0.863481926
00:01.5,-0.199818093
00:01.5,0.112342363
00:01.5,0.466295416
00:01.5,-0.709182866
00:01.5,-0.880404406
00:01.5,-0.762828157
00:01.5,0.631292052
00:01.5,-0.275929073
00:01.5,1.279099643
00:01.5,-0.282123799
00:01.5,0.092275652
00:01.5,0.771054976
00:01.5,1.003046444
00:01.5,1.030751788
00:01.5,0.604183115
00:01.5,0.512031263
00:01.5,0.296263475
00:01.5,0.389180538
00:01.5,-0.275592858
00:01.5,-0.409099442
00:01.5,-0.001687229
00:01.5,-0.085092311
00:01.5,-0.226614025
00:01.5,0.348193724
00:01.5,0.477652604
00:01.5,0.044203443
00:01.5,0.738765041
00:01.5,-0.570844557
00:01.5,-0.09682973
00:01.5,-0.35841116
00:01.5,-0.933268309
00:01.5,-0.041340343
00:01.5,-0.060873754
00:01.5,0.756724872
00:01.5,0.315405842
00:01.5,-0.512093412
00:01.5,0.927046283
00:01.5,0.610516848
00:01.5,0.291048852
00:01.5,-0.113242049
00:01.5,-0.479719618
00:01.5,-0.186103388
00:01.5,0.54437431
00:01.5,0.942293153
00:01.5,0.771621764
00:01.5,-0.244424711
00:01.5,-0.559808717
00:01.5,0.070443123
00:01.5,-0.884219683
00:01.5,0.161583857
00:01.5,-0.073801293
00:01.5,-0.233018251
00:01.5,-0.797351534
00:01.5,0.256800053
00:01.5,-0.26635042
00:01.5,-0.584958418
00:01.5,-1.436131107
00:01.5,-0.013757453
00:01.5,0.886125798
00:01.5,0.830629607
00:01.5,-0.228548128
00:01.5,-0.30110603
00:01.5,0.234387128
00:01.5,-0.49919272
00:01.5,0.15089595
00:01.5,0.383040139
00:01.5,0.613466612
00:01.5,-0.050077038
00:01.6,-0.101836875
00:01.6,-0.438991293
00:01.6,-0.413440177
00:01.6,-0.113239446
00:01.6,0.183682753
00:01.6,0.456792313
00:01.6,-0.401589475
00:01.6,0.746344284
00:01.6,-0.135561801
00:01.6,-0.010683647
00:01.6,-0.37360584
00:01.6,-1.21212013
00:01.6,0.442022698
00:01.6,0.368421949
00:01.6,-0.140663779
00:01.6,0.033495359
00:01.6,0.257969609
00:01.6,-0.781272928
00:01.6,-0.264526339
00:01.6,0.39713234
00:01.6,-0.627144712
00:01.6,0.146778966
00:01.6,-0.678290902
00:01.6,0.233214991
00:01.6,-0.017820741
00:01.6,-0.807565908
00:01.6,0.582369677
00:01.6,-0.367295788
00:01.6,-0.405126219
00:01.6,0.100284599
00:01.6,0.574318675
00:01.6,-0.507910909
00:01.6,0.030839925
00:01.6,0.21440825
00:01.6,0.346552804
00:01.6,0.088220778
00:01.6,-0.18351392
00:01.6,-0.41379511
00:01.6,0.043071942
00:01.6,-0.536069506
00:01.6,-1.460675242
00:01.6,0.218279902
00:01.6,0.451967421
00:01.6,-1.181466218
00:01.6,-0.504865352
00:01.6,0.309577131
00:01.6,1.028747735
00:01.6,0.010396854
00:01.6,-0.364001471
00:01.6,-0.091448221
00:01.6,0.68743821
00:01.6,-0.32298209
00:01.6,-0.399596003
00:01.6,-0.241371761
00:01.6,-0.476664304
00:01.6,0.061335158
00:01.6,0.812339229
00:01.6,0.161539637
00:01.6,-0.126176751
00:01.6,-0.145905634
00:01.6,-0.781595404
00:01.6,0.441554889
00:01.6,-0.038918599
00:01.6,-0.090239957
00:01.6,1.596553784
00:01.6,0.149376454
00:01.6,-0.375895525
00:01.6,-0.213178798
00:01.6,0.574222855
00:01.6,0.056635205
00:01.6,-0.719138989
00:01.6,0.459614467
00:01.6,-0.334072043
00:01.6,0.936648888
00:01.6,0.540024033
00:01.6,-0.223660948
00:01.6,0.640508181
00:01.6,0.033927755
00:01.6,0.426386838
00:01.6,0.242366409
00:01.6,-0.423178327
00:01.6,-0.321774916
00:01.6,0.514980409
00:01.6,-0.167387666
00:01.6,-0.201824232
00:01.6,-0.47756129
00:01.6,0.211799533
00:01.6,1.03126246
00:01.6,-0.533766457
00:01.6,0.012109728
00:01.6,0.706110278
00:01.6,-0.039820696
00:01.6,0.226185898
00:01.6,-0.531196764
00:01.6,0.214153549
00:01.6,-0.093572133
00:01.6,0.492864998
00:01.6,0.593693026
00:01.6,1.294781821
00:01.6,0.289816587
00:01.7,0.162898158
00:01.7,0.097192151
00:01.7,-0.176583146
00:01.7,0.169241922
00:01.7,-0.147700705
00:01.7,0.084230488
00:01.7,0.658798768
00:01.7,-0.503271283
00:01.7,0.569939281
00:01.7,0.658557534
00:01.7,-0.059034263
00:01.7,-1.06092745
00:01.7,-0.303910994
00:01.7,0.648497273
00:01.7,-0.011434031
00:01.7,-0.499651116
00:01.7,-0.252387461
00:01.7,0.420310013
00:01.7,0.273366784
00:01.7,-0.11946605
00:01.7,-0.183412206
00:01.7,-0.195879075
00:01.7,-0.461205092
00:01.7,0.807687845
00:01.7,-0.161160235
00:01.7,0.60857926
00:01.7,0.760658026
00:01.7,0.499155449
00:01.7,-0.215810156
00:01.7,0.201865045
00:01.7,-0.012097803
00:01.7,-0.45185093
00:01.7,0.162179641
00:01.7,-0.589519896
00:01.7,0.593839694
00:01.7,-0.232308649
00:01.7,0.100579828
00:01.7,0.141643936
00:01.7,-0.129452487
00:01.7,0.293346901
00:01.7,-0.237451828
00:01.7,0.435648649
00:01.7,-0.67298984
00:01.7,0.06318979
00:01.7,0.9694645
00:01.7,-0.500165662
00:01.7,-0.338872485
00:01.7,0.256953925
00:01.7,0.089790891
00:01.7,0.17531505
00:01.7,0.244593565
00:01.7,0.317360734
00:01.7,0.554849921
00:01.7,0.204909328
00:01.7,-0.120628827
00:01.7,0.336286851
00:01.7,0.949940967
00:01.7,-0.066316873
00:01.7,-0.487264652
00:01.7,0.553540335
00:01.7,-0.060190582
00:01.7,-1.086334773
00:01.7,0.423710839
00:01.7,-0.267664093
00:01.7,-0.045266641
00:01.7,0.165990165
00:01.7,0.09524984
00:01.7,0.354725909
00:01.7,-0.217743185
00:01.7,0.256552899
00:01.7,-0.129773339
00:01.7,0.36940524
00:01.7,0.307683742
00:01.7,-0.467719351
00:01.7,0.542991058
00:01.7,-0.267981723
00:01.7,0.404028899
00:01.7,0.183643657
00:01.7,0.919091838
00:01.7,-0.111732991
00:01.7,-0.174658398
00:01.7,-0.009709803
00:01.7,-0.151589891
00:01.7,0.399970951
00:01.7,-0.808155304
00:01.7,-0.52684121
00:01.7,-0.533901461
00:01.7,0.475153796
00:01.7,0.855306686
00:01.7,-0.052224609
00:01.7,-0.084410862
00:01.7,0.035026082
00:01.7,0.580939151
00:01.7,-0.463676567
00:01.7,0.119184491
00:01.7,0.487598815
00:01.7,0.250547085
00:01.7,0.094790808
00:01.7,0.500523046
00:01.7,-1.351616146
00:01.8,0.33893766
00:01.8,-0.327037842
00:01.8,-0.915316448
00:01.8,0.2556013
00:01.8,0.686829273
00:01.8,-0.068724257
00:01.8,0.476437274
00:01.8,0.806139129
00:01.8,0.657457227
00:01.8,0.819982265
00:01.8,0.371063746
00:01.8,0.037716819
00:01.8,-0.800982906
00:01.8,-0.123031244
00:01.8,-0.421623298
00:01.8,1.085471359
00:01.8,-0.087942906
00:01.8,0.061602403
00:01.8,0.275742688
00:01.8,0.021801223
00:01.8,0.84752552
00:01.8,-0.311324681
00:01.8,0.097303728
00:01.8,-0.371235293
00:01.8,-0.660011256
00:01.8,-0.305884545
00:01.8,-0.018518399
00:01.8,-0.214651112
00:01.8,-0.34621049
00:01.8,-0.703158732
00:01.8,-0.041552786
00:01.8,-0.752360187
00:01.8,0.380027982
00:01.8,0.041219876
00:01.8,-0.72877575
00:01.8,-0.154604539
00:01.8,-0.376078203
00:01.8,0.159587255
00:01.8,0.670225223
00:01.8,-0.937586235
00:01.8,0.05751304
00:01.8,-0.080066398
00:01.8,0.335670038
00:01.8,0.106598314
00:01.8,-0.375984666
00:01.8,-0.159526968
00:01.8,-0.398012928
00:01.8,0.538003569
00:01.8,0.010655824
00:01.8,0.950595343
00:01.8,-0.030330407
00:01.8,-0.354203383
00:01.8,-0.756857196
00:01.8,-0.901569838
00:01.8,-0.792067972
00:01.8,0.133563326
00:01.8,0.254362512
00:01.8,-0.790595351
00:01.8,0.447519157
00:01.8,-0.241530526
00:01.8,0.073396506
00:01.8,0.806110314
00:01.8,0.448419658
00:01.8,-0.134265324
00:01.8,-0.445596113
00:01.8,-1.075907701
00:01.8,-0.35957666
00:01.8,-0.105565119
00:01.8,-0.493589764
00:01.8,-0.065628484
00:01.8,0.038425941
00:01.8,-0.112427991
00:01.8,-0.32500129
00:01.8,0.084327336
00:01.8,0.220970325
00:01.8,-0.545199539
00:01.8,0.70546619
00:01.8,-0.049294066
00:01.8,0.009424811
00:01.8,0.354107212
00:01.8,0.116608066
00:01.8,0.476568317
00:01.8,0.143562083
00:01.8,-0.306218687
00:01.8,0.180751763
00:01.8,-0.571863104
00:01.8,0.054279853
00:01.8,-0.016614995
00:01.8,-0.104058429
00:01.8,-0.064268756
00:01.8,-0.940924523
00:01.8,-0.274362454
00:01.8,0.046422451
00:01.8,0.079928196
00:01.8,-0.51383757
00:01.8,0.63285392
00:01.8,-0.433087424
00:01.8,0.4847286
00:01.8,0.213597181
00:01.8,-0.323113655
00:01.9,0.887655446
00:01.9,-0.596818416
00:01.9,0.459577087
00:01.9,0.500291159
00:01.9,-0.335310105
00:01.9,0.69623265
00:01.9,-0.125023257
00:01.9,0.144346815
00:01.9,0.130160919
00:01.9,-0.067154371
00:01.9,0.405404137
00:01.9,0.39674436
00:01.9,-0.874265987
00:01.9,0.652170121
00:01.9,-0.831245994
00:01.9,0.516273102
00:01.9,0.563352568
00:01.9,-0.545483215
00:01.9,-0.205407144
00:01.9,-0.552852334
00:01.9,-0.107460515
00:01.9,-0.154017142
00:01.9,0.389830266
00:01.9,0.655154373
00:01.9,0.697841905
00:01.9,-0.281084013
00:01.9,-0.104610937
00:01.9,-0.841719096
00:01.9,-0.402935033
00:01.9,0.482425817
00:01.9,0.807791412
00:01.9,-0.617174436
00:01.9,-0.29623213
00:01.9,-0.013202878
00:01.9,0.140080579
00:01.9,-0.40480176
00:01.9,0.212030522
00:01.9,-0.236919674
00:01.9,-0.007226135
00:01.9,0.273142124
00:01.9,0.003211135
00:01.9,-0.218192945
00:01.9,-0.054804902
00:01.9,-0.04418148
00:01.9,-0.185005515
00:01.9,-0.129398031
00:01.9,0.799323585
00:01.9,0.280459724
00:01.9,-0.147740159
00:01.9,0.348477202
00:01.9,-0.166909745
00:01.9,0.586562319
00:01.9,0.184821096
00:01.9,-0.053651072
00:01.9,0.223858463
00:01.9,-0.785438076
00:01.9,-0.563383734
00:01.9,-0.596962503
00:01.9,0.071471547
00:01.9,0.8662575
00:01.9,1.115650073
00:01.9,0.319025551
00:01.9,0.250422237
00:01.9,-0.900528867
00:01.9,-0.2713369
00:01.9,-0.393891876
00:01.9,-0.310423799
00:01.9,-0.084071909
00:01.9,-0.236045289
00:01.9,-0.989649905
00:01.9,0.373955128
00:01.9,-0.536371513
00:01.9,0.119623432
00:01.9,1.037041335
00:01.9,-0.459692296
00:01.9,-1.265143761
00:01.9,-0.143002111
00:01.9,0.550479817
00:01.9,0.979173727
00:01.9,-0.614774797
00:01.9,0.248349612
00:01.9,-0.232655228
00:01.9,-0.052974177
00:01.9,1.322171674
00:01.9,-0.751485164
00:01.9,0.126869831
00:01.9,0.233846586
00:01.9,0.542893162
00:01.9,0.048991577
00:01.9,0.15402527
00:01.9,-0.195824284
00:01.9,0.134563471
00:01.9,-0.171596138
00:01.9,0.310785945
00:01.9,-0.184805168
00:01.9,0.188550197
00:01.9,-0.014631407
00:01.9,0.563025125
00:01.9,-0.025696862
00:01.9,-0.886516234
00:02.0,0.63096075
00:02.0,-0.45286615
00:02.0,-0.326883169
00:02.0,-0.297830647
00:02.0,0.687219047
00:02.0,-1.067837107
00:02.0,1.568874267
00:02.0,0.528028405
00:02.0,0.111619457
00:02.0,-0.027447
00:02.0,0.142777037
00:02.0,0.260561214
00:02.0,0.322607793
00:02.0,0.277802233
00:02.0,0.044790341
00:02.0,-0.09866921
00:02.0,-0.075636642
00:02.0,-0.09745414
00:02.0,0.566885048
00:02.0,0.296778361
00:02.0,-1.470194317
00:02.0,0.327950388
00:02.0,0.097368097
00:02.0,-0.009354378
00:02.0,-0.194259227
00:02.0,0.56205636
00:02.0,0.473763231
00:02.0,-0.386438834
00:02.0,0.203526144
00:02.0,-0.485828367
00:02.0,-0.689809082
00:02.0,-0.313358612
00:02.0,0.431196736
00:02.0,0.476562523
00:02.0,0.25654271
00:02.0,0.362547893
00:02.0,0.258089144
00:02.0,-0.320740798
00:02.0,0.215961272
00:02.0,0.400204763
00:02.0,0.377145665
00:02.0,0.594456686
00:02.0,0.354151924
00:02.0,0.175724104
00:02.0,0.535075119
00:02.0,-0.01326063
00:02.0,-0.440937326
00:02.0,-0.081533482
00:02.0,-0.372451322
00:02.0,-0.337589137
00:02.0,-0.072259335
00:02.0,-0.39620996
00:02.0,-0.153980765
00:02.0,-0.946807333
00:02.0,0.106646854
00:02.0,0.000602738
00:02.0,-0.408544316
00:02.0,0.329622834
00:02.0,0.468785069
00:02.0,-0.803779932
00:02.0,-0.381362389
00:02.0,-0.384571175
00:02.0,-0.469951551
00:02.0,0.414737421
00:02.0,-0.096913069
00:02.0,-0.132257421
00:02.0,-1.001931182
00:02.0,0.317709015
00:02.0,-0.619629197
00:02.0,0.029966315
00:02.0,0.138688469
00:02.0,0.680329298
00:02.0,-0.6544102
00:02.0,-1.509756078
00:02.0,0.091924772
00:02.0,0.900255591
00:02.0,0.619473176
00:02.0,0.104829708
00:02.0,-0.245818093
00:02.0,0.403561298
00:02.0,-0.4867731
00:02.0,0.238178885
00:02.0,0.25273508
00:02.0,0.530104954
00:02.0,1.379830019
00:02.0,0.196207984
00:02.0,-0.254481813
00:02.0,-0.012787156
00:02.0,-0.884537952
00:02.0,-0.347356566
00:02.0,-0.204641219
00:02.0,-0.262044199
00:02.0,0.076177436
00:02.0,-0.411209966
00:02.0,0.560515334
00:02.0,0.000103532
00:02.0,-0.004650161
00:02.0,-0.163947358
00:02.0,0.077595342
00:02.0,0.412549132
00:02.1,-0.433565108
00:02.1,-0.329058245
00:02.1,-0.151863014
00:02.1,-0.672935462
00:02.1,-0.40962893
00:02.1,-0.238110437
00:02.1,0.43719459
00:02.1,0.131280665
00:02.1,0.096794956
00:02.1,0.425448981
00:02.1,-0.068685894
00:02.1,0.195232425
00:02.1,-0.051610876
00:02.1,0.132681175
00:02.1,-0.291379329
00:02.1,-1.219408579
00:02.1,-0.067139581
00:02.1,0.711374068
00:02.1,0.463107701
00:02.1,0.482698742
00:02.1,0.618065361
00:02.1,0.044328795
00:02.1,0.098657854
00:02.1,-0.308825948
00:02.1,-0.158036428
00:02.1,0.307885575
00:02.1,0.601942219
00:02.1,-0.069723138
00:02.1,-0.225094632
00:02.1,0.000263979
00:02.1,0.300603374
00:02.1,-0.721927408
00:02.1,-1.148090477
00:02.1,-0.275268425
00:02.1,-0.610356213
00:02.1,-0.254070099
00:02.1,-0.073890159
00:02.1,-0.226624205
00:02.1,0.726233767
00:02.1,0.163372382
00:02.1,0.15023718
00:02.1,0.311103572
00:02.1,-0.569416559
00:02.1,0.519555894
00:02.1,-0.037882143
00:02.1,0.335240309
00:02.1,-0.535928617
00:02.1,-0.776879383
00:02.1,0.408944829
00:02.1,0.188204763
00:02.1,-0.451025777
00:02.1,-0.434831541
00:02.1,0.562717392
00:02.1,-0.594705946
00:02.1,0.821336477
00:02.1,-0.450310367
00:02.1,0.319195963
00:02.1,-0.164309238
00:02.1,0.301593716
00:02.1,-0.272057001
00:02.1,-0.081396453
00:02.1,0.020459588
00:02.1,-0.501093728
00:02.1,0.370412173
00:02.1,-0.256606783
00:02.1,-0.114299958
00:02.1,-0.497174687
00:02.1,-1.281166829
00:02.1,-0.095513881
00:02.1,1.206307711
00:02.1,0.392302144
00:02.1,-0.00963019
00:02.1,-0.131445415
00:02.1,0.011232946
00:02.1,0.273559558
00:02.1,-0.590406408
00:02.1,0.557160847
00:02.1,0.357690658
00:02.1,0.359092863
00:02.1,0.219237869
00:02.1,0.009808329
00:02.1,0.336430618
00:02.1,0.295907067
00:02.1,-0.177020355
00:02.1,-0.286800886
00:02.1,0.050928148
00:02.1,0.774510076
00:02.1,-0.619553538
00:02.1,-0.733762633
00:02.1,0.082380421
00:02.1,0.025443851
00:02.1,0.086670832
00:02.1,0.121976599
00:02.1,-0.111601127
00:02.1,0.744931719
00:02.1,-0.800451989
00:02.1,-0.414248512
00:02.1,-0.05162738
00:02.1,-0.821594406
00:02.2,-0.087927202
00:02.2,0.830735083
00:02.2,0.010443244
00:02.2,0.115350453
00:02.2,-0.630082383
00:02.2,-0.308180704
00:02.2,-0.18759819
00:02.2,-0.158857548
00:02.2,0.640821898
00:02.2,0.27884553
00:02.2,-0.555728978
00:02.2,0.123252389
00:02.2,0.249110874
00:02.2,0.570074519
00:02.2,0.790270343
00:02.2,-0.507547096
00:02.2,-0.405428756
00:02.2,-0.628788929
00:02.2,-0.11700993
00:02.2,0.233179187
00:02.2,0.493667258
00:02.2,-0.037975512
00:02.2,-0.159923762
00:02.2,0.075878996
00:02.2,-0.417571451
00:02.2,1.044769361
00:02.2,-0.803830514
00:02.2,0.092370289
00:02.2,1.01180311
00:02.2,0.003399922
00:02.2,-0.095019518
00:02.2,-0.178722711
00:02.2,-0.090195841
00:02.2,0.686424237
00:02.2,-1.105930956
00:02.2,0.766716851
00:02.2,-0.711978576
00:02.2,-0.133326165
00:02.2,-0.21462221
00:02.2,0.294276635
00:02.2,-0.799062176
00:02.2,0.231086333
00:02.2,1.012154812
00:02.2,-0.681587002
00:02.2,0.094853084
00:02.2,-0.330991089
00:02.2,0.212943603
00:02.2,0.009573889
00:02.2,-0.320743455
00:02.2,0.243936142
00:02.2,0.902174055
00:02.2,-0.095451896
00:02.2,0.359878971
00:02.2,-0.646636479
00:02.2,-0.478218188
00:02.2,0.236203139
00:02.2,0.742058014
00:02.2,0.177806674
00:02.2,-0.156529015
00:02.2,-0.000354297
00:02.2,-0.625203867
00:02.2,0.302257663
00:02.2,0.441166531
00:02.2,-0.226045166
00:02.2,-0.235021074
00:02.2,0.132939115
00:02.2,-0.218359868
00:02.2,-0.033066307
00:02.2,1.049860895
00:02.2,-0.12351285
00:02.2,-0.179170076
00:02.2,-0.323770903
00:02.2,0.372095986
00:02.2,-0.090612087
00:02.2,-0.324686519
00:02.2,0.660652016
00:02.2,0.709801502
00:02.2,-0.300211783
00:02.2,-0.933269976
00:02.2,0.503756845
00:02.2,-0.342314913
00:02.2,0.3953128
00:02.2,-0.985051909
00:02.2,0.446298669
00:02.2,-0.605585965
00:02.2,0.36538206
00:02.2,0.007136534
00:02.2,-0.47696971
00:02.2,-0.203518156
00:02.2,0.343159228
00:02.2,0.052947227
00:02.2,0.29220649
00:02.2,0.988220292
00:02.2,-0.782120806
00:02.2,0.808606287
00:02.2,0.052177969
00:02.2,-0.449392024
00:02.2,-0.665156813
00:02.2,-0.094560195
00:02.2,0.460825056
00:02.2,-0.06377456
00:02.3,0.755577465
00:02.3,-0.725587845
00:02.3,-0.006044474
00:02.3,-0.626196722
00:02.3,0.181815941
00:02.3,0.443443695
00:02.3,-0.210380897
00:02.3,-1.302106928
00:02.3,0.099474073
00:02.3,0.218369276
00:02.3,0.202147377
00:02.3,0.617891096
00:02.3,-0.53552684
00:02.3,0.340108053
00:02.3,0.596253756
00:02.3,-0.889293792
00:02.3,0.159825913
00:02.3,-0.252089916
00:02.3,-0.040761337
00:02.3,0.173838242
00:02.3,-0.243614282
00:02.3,-0.33785404
00:02.3,0.017076209
00:02.3,-0.543622969
00:02.3,-0.542912564
00:02.3,0.339686641
00:02.3,-0.574397018
00:02.3,0.33315625
00:02.3,0.231295646
00:02.3,-0.862903364
00:02.3,-0.338782326
00:02.3,0.597054702
00:02.3,-0.490582766
00:02.3,-0.232202131
00:02.3,0.231030447
00:02.3,0.391695255
00:02.3,-0.125769443
00:02.3,-0.298755097
00:02.3,0.711184931
00:02.3,0.869449832
00:02.3,0.489429025
00:02.3,0.042659071
00:02.3,-0.404132861
00:02.3,-0.415222203
00:02.3,0.261257053
00:02.3,0.20919911
00:02.3,0.700799296
00:02.3,0.325225046
00:02.3,-0.751540151
00:02.3,0.525973809
00:02.3,-0.499030314
00:02.3,-0.191985636
00:02.3,0.125100103
00:02.3,0.997833745
00:02.3,1.554959278
00:02.3,0.30336153
00:02.3,-0.091598309
00:02.3,0.267252824
00:02.3,0.443827713
00:02.3,-0.160333813
00:02.3,0.897605678
00:02.3,0.11503538
00:02.3,0.248871545
00:02.3,0.332962126
00:02.3,0.210793305
00:02.3,0.41947025
00:02.3,-0.308626593
00:02.3,-0.279150877
00:02.3,-0.550077116
00:02.3,0.219750615
00:02.3,0.389468252
00:02.3,0.228886433
00:02.3,0.837246217
00:02.3,-0.002798009
00:02.3,0.334370828
00:02.3,-0.545850438
00:02.3,-0.193549851
00:02.3,0.347768879
00:02.3,0.424551055
00:02.3,-0.146983474
00:02.3,-0.035799626
00:02.3,-0.758936873
00:02.3,-0.1785146
00:02.3,0.445191582
00:02.3,0.287602508
00:02.3,0.250332861
00:02.3,0.024886844
00:02.3,0.003531579
00:02.3,-0.33016057
00:02.3,0.34941421
00:02.3,0.210486472
00:02.3,0.246009424
00:02.3,-0.263017421
00:02.3,-1.07667146
00:02.3,0.548576356
00:02.3,-0.239418728
00:02.3,-0.431387882
00:02.3,0.346739456
00:02.3,-0.19600632
00:02.3,0.529968192
00:02.4,0.308502975
00:02.4,0.341784662
00:02.4,-0.682977856
00:02.4,0.605971993
00:02.4,0.130625266
00:02.4,-0.18463857
00:02.4,0.071694234
00:02.4,-0.888117616
00:02.4,0.204326406
00:02.4,-0.514685754
00:02.4,-0.676335143
00:02.4,-0.761179593
00:02.4,0.556344187
00:02.4,-0.314631697
00:02.4,0.766863855
00:02.4,-0.267900732
00:02.4,-0.853678979
00:02.4,-0.55826222
00:02.4,0.61790581
00:02.4,-0.077949089
00:02.4,-0.274143648
00:02.4,0.080009113
00:02.4,0.250891368
00:02.4,0.558699408
00:02.4,0.724249615
00:02.4,-0.179884323
00:02.4,-0.663023843
00:02.4,-0.206732581
00:02.4,0.130140253
00:02.4,-0.481879463
00:02.4,-0.478575457
00:02.4,0.171893941
00:02.4,-0.024326176
00:02.4,0.016398498
00:02.4,-0.379247667
00:02.4,-0.115200357
00:02.4,-0.462116572
00:02.4,0.445099206
00:02.4,0.517624667
00:02.4,-0.923093931
00:02.4,-0.46475543
00:02.4,-0.748264628
00:02.4,-0.325011967
00:02.4,-0.041718985
00:02.4,-0.72482261
00:02.4,-0.460929907
00:02.4,-0.501978686
00:02.4,0.103633665
00:02.4,0.034672169
00:02.4,-0.360868777
00:02.4,0.088410436
00:02.4,-0.273340042
00:02.4,-0.135827555
00:02.4,0.836726045
00:02.4,0.670230526
00:02.4,-0.649790618
00:02.4,0.414866209
00:02.4,0.405698277
00:02.4,-0.574131644
00:02.4,0.409388822
00:02.4,0.768965959
00:02.4,-0.561272403
00:02.4,-0.458751411
00:02.4,0.508830733
00:02.4,0.135747655
00:02.4,0.275738138
00:02.4,0.170294608
00:02.4,0.19534796
00:02.4,-0.663236064
00:02.4,0.523658853
00:02.4,0.584794996
00:02.4,-0.114695372
00:02.4,-0.021738475
00:02.4,-0.765553751
00:02.4,0.257127378
00:02.4,0.286028721
00:02.4,-0.031095508
00:02.4,0.56217668
00:02.4,-0.167038615
00:02.4,0.282302963
00:02.4,-0.509832169
00:02.4,-0.011776075
00:02.4,-0.087177129
00:02.4,0.112653961
00:02.4,-0.184763464
00:02.4,-0.065736298
00:02.4,0.413023586
00:02.4,-0.218382119
00:02.4,-0.80328855
00:02.4,0.874791952
00:02.4,0.690727039
00:02.4,-0.646131348
00:02.4,0.344853903
00:02.4,-0.251487385
00:02.4,0.131743608
00:02.4,0.147112065
00:02.4,-0.1172039
00:02.4,-0.391882833
00:02.4,-0.345270526
00:02.4,-0.458095958
00:02.5,-0.415911104
00:02.5,-0.033589145
00:02.5,-0.357879995
00:02.5,0.341026033
00:02.5,0.743623078
00:02.5,-0.290026621
00:02.5,0.11970225
00:02.5,0.249842555
00:02.5,0.236001135
00:02.5,0.037977634
00:02.5,0.371341209
00:02.5,0.241124476
00:02.5,-0.618831211
00:02.5,0.434578032
00:02.5,0.443645419
00:02.5,-0.381643052
00:02.5,0.018968918
00:02.5,0.341664496
00:02.5,-0.10465691
00:02.5,0.536489024
00:02.5,1.181936247
00:02.5,-0.392993016
00:02.5,-0.690522302
00:02.5,0.151909298
00:02.5,0.360781253
00:02.5,-0.115433187
00:02.5,0.726630332
00:02.5,-0.6693029
00:02.5,0.346459312
00:02.5,-0.30293041
00:02.5,0.859688953
00:02.5,0.996257677
00:02.5,-0.383328294
00:02.5,-0.274778568
00:02.5,0.429793943
00:02.5,-0.193565325
00:02.5,-0.022705609
00:02.5,0.01269421
00:02.5,-0.959836578
00:02.5,-0.006918873
00:02.5,-0.344863887
00:02.5,-0.246561411
00:02.5,0.721816002
00:02.5,-0.628253447
00:02.5,0.406602593
00:02.5,-0.139481465
00:02.5,-0.139880084
00:02.5,0.395185948
00:02.5,0.170025647
00:02.5,0.285306499
00:02.5,0.48409233
00:02.5,-0.165654192
00:02.5,-0.306118367
00:02.5,-0.542575263
00:02.5,-0.412705265
00:02.5,1.474547213
00:02.5,0.62233979
00:02.5,-0.675537183
00:02.5,-0.661228978
00:02.5,0.240933031
00:02.5,0.273632399
00:02.5,0.274441918
00:02.5,-0.127477897
00:02.5,-0.06272713
00:02.5,0.163939762
00:02.5,0.042946503
00:02.5,-1.109650186
00:02.5,-0.114899815
00:02.5,-0.425703217
00:02.5,0.087605709
00:02.5,1.492629501
00:02.5,0.183740833
00:02.5,-0.156764843
00:02.5,0.460900751
00:02.5,0.241343944
00:02.5,0.210047245
00:02.5,0.303425297
00:02.5,1.028271782
00:02.5,-0.565444218
00:02.5,0.236816038
00:02.5,-0.463190565
00:02.5,0.277756323
00:02.5,-0.459343256
00:02.5,-0.208683407
00:02.5,-0.147544957
00:02.5,0.48790836
00:02.5,0.459227222
00:02.5,-0.622858688
00:02.5,0.027467055
00:02.5,-0.354789927
00:02.5,-0.629252455
00:02.5,-0.108508525
00:02.5,-0.154241394
00:02.5,1.213358243
00:02.5,0.216479913
00:02.5,-0.68880875
00:02.5,-0.282387002
00:02.5,0.510691648
00:02.5,1.044221386
00:02.5,-0.792991656
00:02.6,-0.939962193
00:02.6,0.935482588
00:02.6,0.194807089
00:02.6,-0.434146366
00:02.6,0.267314543
00:02.6,-1.31787387
00:02.6,0.001687753
00:02.6,0.163910586
00:02.6,0.46213507
00:02.6,-0.506947976
00:02.6,0.042843581
00:02.6,-0.462712313
00:02.6,0.127691878
00:02.6,-0.447673161
00:02.6,-0.20405042
00:02.6,-0.497907697
00:02.6,0.325568121
00:02.6,0.429225558
00:02.6,-0.117310285
00:02.6,0.019118997
00:02.6,-0.724295707
00:02.6,-0.149838324
00:02.6,-0.025102309
00:02.6,1.310396546
00:02.6,-0.555983513
00:02.6,0.732088619
00:02.6,0.498429387
00:02.6,0.140318202
00:02.6,0.879310242
00:02.6,0.186052736
00:02.6,0.194579598
00:02.6,-0.026560327
00:02.6,0.611784441
00:02.6,0.548234617
00:02.6,-0.312838644
00:02.6,-0.659623597
00:02.6,-0.101490319
00:02.6,-0.400019282
00:02.6,-0.031762287
00:02.6,0.618719067
00:02.6,-0.228650828
00:02.6,-0.021411691
00:02.6,0.029011367
00:02.6,0.424215441
00:02.6,-1.123444667
00:02.6,-0.303350147
00:02.6,0.105641846
00:02.6,0.600039478
00:02.6,-0.245951224
00:02.6,-0.938276353
00:02.6,0.309855723
00:02.6,-0.317681194
00:02.6,-0.59483333
00:02.6,-0.312172695
00:02.6,-0.092262679
00:02.6,-0.302372332
00:02.6,-1.102783029
00:02.6,0.448533098
00:02.6,0.637437521
00:02.6,0.325760996
00:02.6,-0.568842835
00:02.6,-0.100745767
00:02.6,-0.003260658
00:02.6,0.299397195
00:02.6,0.334170244
00:02.6,-0.367086899
00:02.6,0.040997778
00:02.6,0.228640202
00:02.6,0.727911161
00:02.6,0.35225327
00:02.6,0.394528344
00:02.6,0.041913314
00:02.6,0.705229573
00:02.6,0.204881398
00:02.6,-0.430543955
00:02.6,0.701684985
00:02.6,0.348951636
00:02.6,-0.221522011
00:02.6,-0.239746484
00:02.6,0.148287773
00:02.6,0.231592398
00:02.6,0.098646133
00:02.6,0.155654337
00:02.6,0.849978687
00:02.6,0.535771576
00:02.6,0.095317796
00:02.6,0.47065529
00:02.6,-0.516261952
00:02.6,0.198963525
00:02.6,0.904653175
00:02.6,-0.109022948
00:02.6,-0.423816964
00:02.6,-0.326044444
00:02.6,-0.544816519
00:02.6,-0.392380954
00:02.6,-0.185254049
00:02.6,-0.70278351
00:02.6,0.007809167
00:02.6,0.451138587
00:02.6,-0.45387809
00:02.7,0.759641962
00:02.7,0.255396044
00:02.7,0.515290293
00:02.7,-0.328917277
00:02.7,0.427262614
00:02.7,-0.54596695
00:02.7,0.44512375
00:02.7,0.08591967
00:02.7,0.27662561
00:02.7,-0.587797303
00:02.7,-0.447534921
00:02.7,0.298614109
00:02.7,-0.474174002
00:02.7,0.231603146
00:02.7,-0.683568903
00:02.7,0.424087106
00:02.7,-0.616261657
00:02.7,0.276149969
00:02.7,0.312815467
00:02.7,-0.348385909
00:02.7,0.291013284
00:02.7,0.130221132
00:02.7,-0.269420928
00:02.7,-0.504277342
00:02.7,-0.981312846
00:02.7,0.174825024
00:02.7,-0.782401386
00:02.7,0.0476721
00:02.7,-0.131724108
00:02.7,0.339571388
00:02.7,-0.15102275
00:02.7,-0.164723893
00:02.7,0.365935352
00:02.7,0.167529015
00:02.7,0.158077979
00:02.7,0.234633795
00:02.7,-0.767786062
00:02.7,0.37839434
00:02.7,0.306234397
00:02.7,-0.508341564
00:02.7,-0.122040237
00:02.7,-0.019653644
00:02.7,-0.067248392
00:02.7,0.166929983
00:02.7,0.715683391
00:02.7,0.540883364
00:02.7,-0.656109597
00:02.7,0.311034995
00:02.7,0.66446666
00:02.7,0.19340426
00:02.7,0.545490213
00:02.7,1.006135223
00:02.7,0.511854773
00:02.7,0.124654298
00:02.7,0.522544237
00:02.7,0.072443917
00:02.7,0.011951522
00:02.7,-0.175707118
00:02.7,0.781706679
00:02.7,-0.409214333
00:02.7,0.766183862
00:02.7,0.249932062
00:02.7,-0.699653087
00:02.7,0.183824646
00:02.7,-1.050013254
00:02.7,0.312754008
00:02.7,0.442615741
00:02.7,-0.296177978
00:02.7,0.061773848
00:02.7,0.977078717
00:02.7,-0.252873352
00:02.7,-0.529453794
00:02.7,0.740831701
00:02.7,0.981293595
00:02.7,0.001847836
00:02.7,0.505731518
00:02.7,0.670737958
00:02.7,-0.371242116
00:02.7,-0.242652918
00:02.7,0.615437257
00:02.7,0.842507139
00:02.7,0.28144043
00:02.7,-0.439907177
00:02.7,0.993530556
00:02.7,-0.265485449
00:02.7,-0.167568891
00:02.7,0.171168917
00:02.7,0.77708021
00:02.7,0.426987988
00:02.7,0.20743275
00:02.7,0.231644265
00:02.7,0.021757334
00:02.7,0.279069757
00:02.7,-1.264780039
00:02.7,-0.14830373
00:02.7,0.120660967
00:02.7,-0.575507042
00:02.7,0.193161659
00:02.7,-0.10223561
00:02.7,0.877737849
00:02.8,0.786509863
00:02.8,-0.232902785
00:02.8,-0.075418856
00:02.8,-0.036973783
00:02.8,-0.225829738
00:02.8,0.097512492
00:02.8,-0.379141034
00:02.8,-0.565307667
00:02.8,0.311355612
00:02.8,0.314764792
00:02.8,-0.40215788
00:02.8,0.447677715
00:02.8,-0.315788865
00:02.8,0.126582619
00:02.8,0.410172006
00:02.8,-0.016806282
00:02.8,0.227370456
00:02.8,-0.258214822
00:02.8,-0.098233292
00:02.8,-0.102929715
00:02.8,-0.373289173
00:02.8,-0.088387082
00:02.8,-0.774309149
00:02.8,-0.245576874
00:02.8,-0.142437747
00:02.8,-0.128089876
00:02.8,-0.120748723
00:02.8,-0.0308821
00:02.8,0.239720759
00:02.8,0.437258537
00:02.8,-0.324882613
00:02.8,-0.601600428
00:02.8,-0.521022206
00:02.8,-0.243601461
00:02.8,-0.175960659
00:02.8,-0.384998033
00:02.8,-0.648058332
00:02.8,-0.228060414
00:02.8,0.09071331
00:02.8,0.297514733
00:02.8,-0.278711527
00:02.8,-0.206498911
00:02.8,-0.463349154
00:02.8,-0.015719585
00:02.8,-0.424214317
00:02.8,0.286563907
00:02.8,-0.892933246
00:02.8,-0.179814836
00:02.8,0.15055367
00:02.8,0.091917258
00:02.8,1.346516832
00:02.8,0.174900012
00:02.8,-0.502027298
00:02.8,-0.047732124
00:02.8,-0.888123167
00:02.8,-0.040299875
00:02.8,-0.416528029
00:02.8,0.457695138
00:02.8,-0.274770137
00:02.8,-0.058382958
00:02.8,-0.317778921
00:02.8,0.869425676
00:02.8,-0.160621383
00:02.8,0.916278522
00:02.8,0.407075881
00:02.8,0.241033364
00:02.8,0.184366574
00:02.8,0.196898649
00:02.8,-0.96383629
00:02.8,-0.139441697
00:02.8,0.422578986
00:02.8,-0.024448592
00:02.8,-0.702594923
00:02.8,-0.026202225
00:02.8,0.852052758
00:02.8,0.623445858
00:02.8,-0.031002005
00:02.8,0.475724639
00:02.8,-0.18325351
00:02.8,-0.851935793
00:02.8,-0.462232994
00:02.8,0.781444384
00:02.8,-0.136996541
00:02.8,-0.12169199
00:02.8,-0.149919098
00:02.8,0.952068295
00:02.8,0.812979458
00:02.8,1.109390117
00:02.8,-0.079522605
00:02.8,0.147812244
00:02.8,-0.758321275
00:02.8,0.738467213
00:02.8,-0.583889776
00:02.8,0.108387782
00:02.8,-0.548651264
00:02.8,-0.294433413
00:02.8,-0.418631216
00:02.8,-0.30393763
00:02.8,-0.269561352
00:02.8,-0.274134397
00:02.9,0.416666956
00:02.9,-0.552431397
00:02.9,0.110270714
00:02.9,0.608979576
00:02.9,-0.256598182
00:02.9,-0.358959445
00:02.9,-0.115262313
00:02.9,0.589862604
00:02.9,0.097053815
00:02.9,-0.265607147
00:02.9,0.241938326
00:02.9,-0.551146075
00:02.9,0.340679755
00:02.9,0.204303654
00:02.9,-0.153904236
00:02.9,-0.419292899
00:02.9,-0.443340461
00:02.9,0.267408668
00:02.9,0.614490251
00:02.9,-0.318653874
00:02.9,0.229193352
00:02.9,-1.043513509
00:02.9,-0.292308865
00:02.9,-0.015529466
00:02.9,-0.454841708
00:02.9,-0.468253187
00:02.9,-0.333889778
00:02.9,0.146096364
00:02.9,-0.093664509
00:02.9,-1.119115617
00:02.9,-1.060350076
00:02.9,-0.303432589
00:02.9,0.228843293
00:02.9,-1.373752421
00:02.9,-0.249865088
00:02.9,-0.263123928
00:02.9,0.694168889
00:02.9,-0.192510906
00:02.9,0.191494492
00:02.9,0.07062857
00:02.9,-1.06528324
00:02.9,0.384103608
00:02.9,0.107698253
00:02.9,0.25413432
00:02.9,1.963118853
00:02.9,-1.04205647
00:02.9,0.862348325
00:02.9,-0.14372376
00:02.9,0.143664452
00:02.9,-0.022756123
00:02.9,-0.212118167
00:02.9,-0.284916464
00:02.9,0.164754368
00:02.9,-0.758586848
00:02.9,0.375289584
00:02.9,-0.208097202
00:02.9,-0.56503467
00:02.9,-0.225006429
00:02.9,0.628574608
00:02.9,-0.267667544
00:02.9,0.179226809
00:02.9,-0.365478138
00:02.9,0.378960925
00:02.9,0.342753869
00:02.9,0.924304417
00:02.9,-0.087781973
00:02.9,0.334327402
00:02.9,0.04903377
00:02.9,0.647935891
00:02.9,-0.359416194
00:02.9,0.372502656
00:02.9,-0.097348648
00:02.9,-0.032094089
00:02.9,0.045876242
00:02.9,0.126120198
00:02.9,-0.058114522
00:02.9,0.107356592
00:02.9,0.789059029
00:02.9,0.492724843
00:02.9,0.434577296
00:02.9,-0.227769763
00:02.9,-0.444620414
00:02.9,0.477650279
00:02.9,0.438023396
00:02.9,0.736335338
00:02.9,-0.301990313
00:02.9,-0.114774328
00:02.9,-0.819742081
00:02.9,-0.196235553
00:02.9,0.498285255
00:02.9,-0.23324769
00:02.9,0.320239898
00:02.9,-0.095251553
00:02.9,0.162028514
00:02.9,-0.573845695
00:02.9,0.042604725
00:02.9,-1.495567985
00:02.9,-0.093448079
00:02.9,-0.815236622
00:02.9,0.602997258
00:03.0,0.388703676
00:03.0,0.233335491
00:03.0,0.760503114
00:03.0,-0.47445826
00:03.0,0.873681599
00:03.0,0.466095782
00:03.0,-0.118277644
00:03.0,0.567810074
00:03.0,-0.553146756
00:03.0,-0.412257081
00:03.0,-0.304294862
00:03.0,-0.264488854
00:03.0,-0.528278821
00:03.0,0.611541534
00:03.0,-0.1294272
00:03.0,0.176252484
00:03.0,-0.285175683
00:03.0,-0.91030165
00:03.0,0.135028679
00:03.0,-0.956127488
00:03.0,-0.034317023
00:03.0,-0.684157519
00:03.0,0.993638
00:03.0,0.455681361
00:03.0,0.052876896
00:03.0,0.631853339
00:03.0,-0.423157989
00:03.0,0.271739689
00:03.0,0.099905217
00:03.0,0.132010041
00:03.0,0.63617675
00:03.0,0.366246051
00:03.0,0.144361831
00:03.0,-0.827443718
00:03.0,-0.480023148
00:03.0,-0.061354467
00:03.0,0.046686187
00:03.0,-0.565101862
00:03.0,1.205838338
00:03.0,0.758197028
00:03.0,0.30105916
00:03.0,0.036018431
00:03.0,-0.106104485
00:03.0,-0.47595923
00:03.0,0.038740259
00:03.0,0.12887627
00:03.0,-0.620880288
00:03.0,0.167088209
00:03.0,-0.077629524
00:03.0,-0.953903779
00:03.0,-0.430192505
00:03.0,-0.206802767
00:03.0,0.943843829
00:03.0,0.278276562
00:03.0,-0.667740785
00:03.0,0.243018145
00:03.0,-0.773651994
00:03.0,0.541345527
00:03.0,-0.235562326
00:03.0,-0.046818094
00:03.0,0.662898324
00:03.0,-0.643581784
00:03.0,-0.698559093
00:03.0,-0.291799663
00:03.0,0.519189426
00:03.0,-0.759673038
00:03.0,-1.416077799
00:03.0,-0.225579429
00:03.0,0.2758704
00:03.0,0.600130875
00:03.0,-0.231580681
00:03.0,-0.205713304
00:03.0,0.576950367
00:03.0,-0.93487085
00:03.0,-0.194260388
00:03.0,0.095211945
00:03.0,0.224609361
00:03.0,-0.254903347
00:03.0,0.017220506
00:03.0,-1.244163677
00:03.0,-0.329124206
00:03.0,0.226754356
00:03.0,-0.491147017
00:03.0,0.029492111
00:03.0,0.22343625
00:03.0,-0.1712746
00:03.0,0.085231885
00:03.0,-0.481366283
00:03.0,-0.10330564
00:03.0,0.305108085
00:03.0,0.07848648
00:03.0,-0.293265635
00:03.0,0.112108202
00:03.0,0.357304895
00:03.0,-1.024970639
00:03.0,0.579537032
00:03.0,-0.168127369
00:03.0,0.212744967
00:03.0,0.598623462
00:03.0,-0.685836849
00:03.1,-0.354720501
00:03.1,-0.144274348
00:03.1,-0.391876761
00:03.1,0.867468288
00:03.1,-0.428386047
00:03.1,-0.27777339
00:03.1,0.102194516
00:03.1,-0.601074763
00:03.1,-0.197840356
00:03.1,0.158726631
00:03.1,-0.166430202
00:03.1,-0.046693429
00:03.1,-0.264666056
00:03.1,-0.757235155
00:03.1,0.160796606
00:03.1,0.877466536
00:03.1,0.009200815
00:03.1,0.112632059
00:03.1,0.346361378
00:03.1,-0.634665248
00:03.1,0.851257329
00:03.1,0.101164398
00:03.1,0.81592845
00:03.1,-0.366516498
00:03.1,0.909030961
00:03.1,0.387577747
00:03.1,0.276520043
00:03.1,0.117012227
00:03.1,-0.124264309
00:03.1,0.600265829
00:03.1,0.070179935
00:03.1,-0.983534852
00:03.1,-0.558593231
00:03.1,-0.092922876
00:03.1,0.154999492
00:03.1,-0.028294244
00:03.1,0.609485395
00:03.1,-0.975550932
00:03.1,0.071793968
00:03.1,-0.908989613
00:03.1,0.379856148
00:03.1,-0.047229357
00:03.1,0.209804986
00:03.1,-0.43194148
00:03.1,0.639732466
00:03.1,0.520862332
00:03.1,0.291772152
00:03.1,-0.064758623
00:03.1,0.289928643
00:03.1,-0.353446284
00:03.1,0.42777783
00:03.1,0.824740447
00:03.1,0.53530528
00:03.1,-0.364801235
00:03.1,0.180708659
00:03.1,-0.646570772
00:03.1,0.286195156
00:03.1,0.225301706
00:03.1,-0.93490817
00:03.1,-0.580891922
00:03.1,-0.141569448
00:03.1,-0.150429874
00:03.1,-0.604738468
00:03.1,0.194489365
00:03.1,0.125736804
00:03.1,-0.097134566
00:03.1,-0.37789575
00:03.1,0.524353563
00:03.1,0.827703557
00:03.1,-0.241780742
00:03.1,-0.306083459
00:03.1,0.245603833
00:03.1,-0.17901469
00:03.1,-0.0696986
00:03.1,0.369826576
00:03.1,-0.954678044
00:03.1,0.659151162
00:03.1,0.036340262
00:03.1,-0.205746572
00:03.1,-0.044617077
00:03.1,-0.018785322
00:03.1,-0.865600652
00:03.1,0.747469114
00:03.1,0.020662816
00:03.1,0.221501065
00:03.1,0.475774885
00:03.1,-0.510581229
00:03.1,0.23673595
00:03.1,-0.133820545
00:03.1,0.423385388
00:03.1,-1.06361371
00:03.1,-0.04954715
00:03.1,-0.301410328
00:03.1,0.216131475
00:03.1,0.235022094
00:03.1,-0.353812947
00:03.1,-0.356086932
00:03.1,-0.055332684
00:03.1,-0.448321114
00:03.1,0.420991848
00:03.2,-0.1846036
00:03.2,-1.45349411
00:03.2,-0.187411028
00:03.2,-0.51927191
00:03.2,-0.815637908
00:03.2,-0.618713319
00:03.2,0.054704236
00:03.2,0.664320414
00:03.2,0.156592237
00:03.2,-0.303251694
00:03.2,0.227952098
00:03.2,-0.229545155
00:03.2,-0.347300185
00:03.2,-0.577181334
00:03.2,-0.875914403
00:03.2,-0.194961853
00:03.2,0.079026745
00:03.2,-0.048311835
00:03.2,-0.207983464
00:03.2,-0.47287303
00:03.2,0.304123096
00:03.2,-0.65856596
00:03.2,0.388013957
00:03.2,-0.501108509
00:03.2,-0.376217619
00:03.2,-0.733392595
00:03.2,-0.250701073
00:03.2,0.487656229
00:03.2,0.257814044
00:03.2,0.489211056
00:03.2,0.261071273
00:03.2,-0.551834914
00:03.2,-0.165394612
00:03.2,-0.390099565
00:03.2,0.665287452
00:03.2,-0.598394323
00:03.2,0.446848845
00:03.2,0.446476935
00:03.2,0.914810101
00:03.2,-0.204843296
00:03.2,0.35616108
00:03.2,1.140825918
00:03.2,-0.308820838
00:03.2,-0.767520124
00:03.2,-0.940005017
00:03.2,0.356356014
00:03.2,-0.941575104
00:03.2,-0.186159526
00:03.2,0.218656594
00:03.2,0.092587768
00:03.2,0.212722432
00:03.2,0.111144928
00:03.2,0.639432907
00:03.2,-0.47615819
00:03.2,-0.338497569
00:03.2,-0.386329723
00:03.2,0.415095906
00:03.2,0.450199294
00:03.2,0.22561266
00:03.2,0.591746833
00:03.2,-0.589020434
00:03.2,0.833612056
00:03.2,0.761619311
00:03.2,0.367810999
00:03.2,0.890899454
00:03.2,-0.828311604
00:03.2,-0.262224068
00:03.2,-0.36765173
00:03.2,0.360739662
00:03.2,-0.52507037
00:03.2,0.378747575
00:03.2,0.685268072
00:03.2,0.34760145
00:03.2,0.141875512
00:03.2,-0.49393667
00:03.2,-0.423425483
00:03.2,0.624809453
00:03.2,0.389674502
00:03.2,-0.01950976
00:03.2,-0.208954773
00:03.2,-1.012903937
00:03.2,-0.535426209
00:03.2,0.955709544
00:03.2,-0.640227786
00:03.2,0.094739911
00:03.2,0.503721987
00:03.2,-0.627461334
00:03.2,0.092355237
00:03.2,0.468957769
00:03.2,0.006249661
00:03.2,1.434201528
00:03.2,-0.834299629
00:03.2,0.529364265
00:03.2,-0.086400869
00:03.2,0.385960077
00:03.2,0.220653576
00:03.2,-0.366578099
00:03.2,0.114498196
00:03.2,-0.928950726
00:03.2,0.30162375
00:03.3,0.149079233
00:03.3,0.319330084
00:03.3,0.529059163
00:03.3,0.18380992
00:03.3,0.07404471
00:03.3,-0.440534168
00:03.3,-0.356110382
00:03.3,0.59336731
00:03.3,0.718167703
00:03.3,-0.119055218
00:03.3,0.023001374
00:03.3,-0.452307187
00:03.3,0.586378423
00:03.3,0.332708412
00:03.3,0.970608718
00:03.3,-0.439161539
00:03.3,-0.18900395
00:03.3,0.115722961
00:03.3,0.323244769
00:03.3,-0.107833819
00:03.3,-0.436480545
00:03.3,0.440703764
00:03.3,0.360567681
00:03.3,-0.45813705
00:03.3,0.677721401
00:03.3,0.585099355
00:03.3,0.067148249
00:03.3,0.039798931
00:03.3,0.277028886
00:03.3,-0.430851535
00:03.3,0.01501574
00:03.3,-1.076191772
00:03.3,0.438227823
00:03.3,-0.780746611
00:03.3,0.751709914
00:03.3,-0.165060047
00:03.3,-0.105833491
00:03.3,-0.313866953
00:03.3,-0.144019437
00:03.3,0.709265673
00:03.3,-1.243904328
00:03.3,0.638482693
00:03.3,0.169011741
00:03.3,-0.603510824
00:03.3,-0.537656197
00:03.3,0.838196514
00:03.3,-0.47275344
00:03.3,-0.576675255
00:03.3,0.568657271
00:03.3,0.169276438
00:03.3,-0.468962788
00:03.3,0.108312488
00:03.3,-0.512876342
00:03.3,0.550410699
00:03.3,0.530685482
00:03.3,0.266003099
00:03.3,0.180830531
00:03.3,0.880594062
00:03.3,-0.000156836
00:03.3,-0.590937063
00:03.3,0.224736956
00:03.3,1.043023525
00:03.3,-0.507379747
00:03.3,-0.180731383
00:03.3,0.208223019
00:03.3,-0.026952425
00:03.3,-0.49115179
00:03.3,0.560928928
00:03.3,1.160020361
00:03.3,0.09806573
00:03.3,-0.452034145
00:03.3,-0.774480263
00:03.3,0.128987991
00:03.3,0.551938672
00:03.3,0.237583873
00:03.3,-0.00120192
00:03.3,-0.294635826
00:03.3,-0.546081816
00:03.3,0.417375663
00:03.3,0.456885811
00:03.3,-0.772864893
00:03.3,0.794919489
00:03.3,0.28703561
00:03.3,0.699797323
00:03.3,-0.671063874
00:03.3,-0.682912078
00:03.3,-0.074484655
00:03.3,0.251392213
00:03.3,0.898180411
00:03.3,0.353039457
00:03.3,-0.121340638
00:03.3,-0.513184604
00:03.3,0.615000286
00:03.3,-0.482352713
00:03.3,0.814234277
00:03.3,-0.142192325
00:03.3,0.795291036
00:03.3,0.339465645
00:03.3,-0.068497745
00:03.3,-0.259698186
00:03.4,-0.170453939
00:03.4,0.214158346
00:03.4,0.038578248
00:03.4,-0.296905704
00:03.4,-0.082815705
00:03.4,0.039288515
00:03.4,-1.064367047
00:03.4,0.229084057
00:03.4,-0.489860612
00:03.4,-0.576666202
00:03.4,-0.843672174
00:03.4,-0.896946249
00:03.4,-0.677723752
00:03.4,-0.354510479
00:03.4,0.976629569
00:03.4,-0.262939838
00:03.4,0.088875053
00:03.4,0.200240693
00:03.4,0.065532593
00:03.4,-0.03872173
00:03.4,-0.597646882
00:03.4,0.725463774
00:03.4,0.903598322
00:03.4,-0.841329347
00:03.4,-0.512014295
00:03.4,-0.139905171
00:03.4,-0.482268897
00:03.4,0.252982777
00:03.4,-0.364136101
00:03.4,1.082528034
00:03.4,0.595274297
00:03.4,0.106287015
00:03.4,0.513493132
00:03.4,0.552950212
00:03.4,-0.281973744
00:03.4,-0.408108622
00:03.4,0.039071531
00:03.4,0.430818062
00:03.4,0.069530199
00:03.4,-0.788498241
00:03.4,-0.401412222
00:03.4,-0.036986432
00:03.4,-0.037832802
00:03.4,0.986271088
00:03.4,-0.692993971
00:03.4,0.252794621
00:03.4,0.744556554
00:03.4,1.135724873
00:03.4,-0.202198712
00:03.4,0.245714726
00:03.4,0.284880179
00:03.4,0.097740866
00:03.4,-0.049422601
00:03.4,0.217987695
00:03.4,-1.266123043
00:03.4,0.341034745
00:03.4,0.063088952
00:03.4,-0.111237448
00:03.4,1.023431098
00:03.4,-0.337467009
00:03.4,-0.201537995
00:03.4,0.995776651
00:03.4,-0.416030652
00:03.4,-0.275057641
00:03.4,-0.073512712
00:03.4,0.420367241
00:03.4,0.103901254
00:03.4,-0.646312674
00:03.4,-0.266084282
00:03.4,-0.303677217
00:03.4,-0.038610523
00:03.4,0.212921829
00:03.4,0.209102878
00:03.4,-0.888005877
00:03.4,0.531970494
00:03.4,0.126284423
00:03.4,0.692266024
00:03.4,0.222099164
00:03.4,0.550661479
00:03.4,0.233272656
00:03.4,0.673112878
00:03.4,0.261125318
00:03.4,-0.048957623
00:03.4,1.13621736
00:03.4,0.444518561
00:03.4,0.286872211
00:03.4,-0.638152208
00:03.4,-0.644153809
00:03.4,0.146357741
00:03.4,0.072760599
00:03.4,-0.307061283
00:03.4,0.07049135
00:03.4,0.794313464
00:03.4,0.347701237
00:03.4,-0.570504255
00:03.4,-0.055754414
00:03.4,-0.40248324
00:03.4,-0.193849958
00:03.4,-0.206807833
00:03.4,-0.238822791
00:03.5,-0.627567686
00:03.5,-0.063827341
00:03.5,-0.280303818
00:03.5,-1.464724345
00:03.5,1.026486012
00:03.5,0.544384827
00:03.5,-0.188150362
00:03.5,0.009409525
00:03.5,-0.585827174
00:03.5,0.847861439
00:03.5,0.948644347
00:03.5,0.078346864
00:03.5,0.511765322
00:03.5,0.087643389
00:03.5,-0.668362719
00:03.5,-0.205911684
00:03.5,0.065963983
00:03.5,-0.227273859
00:03.5,-0.109326639
00:03.5,-0.045699779
00:03.5,-0.040439249
00:03.5,0.026129245
00:03.5,-0.530302533
00:03.5,-0.358508075
00:03.5,-0.642292133
00:03.5,0.488907775
00:03.5,-1.052823471
00:03.5,0.576795172
00:03.5,0.693174699
00:03.5,-0.151090293
00:03.5,-1.301568544
00:03.5,-0.180655281
00:03.5,-0.032092081
00:03.5,-0.50529911
00:03.5,-0.257609197
00:03.5,0.765097599
00:03.5,0.332463581
00:03.5,-0.462282057
00:03.5,-0.798799585
00:03.5,-0.163508659
00:03.5,-0.10672839
00:03.5,0.248099594
00:03.5,-0.267658356
00:03.5,0.255749788
00:03.5,0.96757702
00:03.5,0.407750511
00:03.5,-0.024044254
00:03.5,-0.091575236
00:03.5,-0.178336567
00:03.5,0.590320456
00:03.5,-0.313656723
00:03.5,0.022611354
00:03.5,0.025598951
00:03.5,-0.250892096
00:03.5,-0.686232774
00:03.5,0.161487252
00:03.5,-0.030501986
00:03.5,0.250120235
00:03.5,-0.266800153
00:03.5,0.610410649
00:03.5,-0.438386891
00:03.5,0.856020142
00:03.5,-0.873818255
00:03.5,0.217385032
00:03.5,0.237715341
00:03.5,-0.397778534
00:03.5,0.212196969
00:03.5,0.639759335
00:03.5,-1.10840942
00:03.5,0.251372404
00:03.5,-1.24663541
00:03.5,-0.482832402
00:03.5,0.814583182
00:03.5,-0.290891017
00:03.5,-0.586939982
00:03.5,-0.098968864
00:03.5,1.033953169
00:03.5,-0.915841124
00:03.5,-0.525654956
00:03.5,0.748715842
00:03.5,0.928851172
00:03.5,-0.051715612
00:03.5,-0.619526351
00:03.5,1.047921751
00:03.5,0.797221196
00:03.5,0.339473494
00:03.5,-0.406201174
00:03.5,-0.02451467
00:03.5,-0.080180041
00:03.5,0.165425652
00:03.5,0.725500719
00:03.5,0.439708521
00:03.5,-0.538688038
00:03.5,0.688248225
00:03.5,0.15656607
00:03.5,0.343532898
00:03.5,0.73327043
00:03.5,-0.555790125
00:03.5,-0.017912789
00:03.5,-0.265727276
00:03.6,-0.783929713
00:03.6,0.173354989
00:03.6,1.255778276
00:03.6,-0.920038872
00:03.6,-0.016140306
00:03.6,0.320271468
00:03.6,0.061539101
00:03.6,-0.056564026
00:03.6,-0.649608182
00:03.6,0.116393371
00:03.6,-0.378381989
00:03.6,-1.094960852
00:03.6,0.59729611
00:03.6,0.47919291
00:03.6,0.025830488
00:03.6,0.114537344
00:03.6,0.537159006
00:03.6,0.112169828
00:03.6,0.452008777
00:03.6,-0.1487411
00:03.6,0.655991869
00:03.6,0.160392863
00:03.6,0.097025972
00:03.6,-0.635030544
00:03.6,0.143477927
00:03.6,-0.415977459
00:03.6,-0.319141363
00:03.6,-0.407687814
00:03.6,-0.533117466
00:03.6,1.062385702
00:03.6,0.665669531
00:03.6,0.960183751
00:03.6,-0.61144751
00:03.6,0.035626875
00:03.6,-0.646753813
00:03.6,-0.347847439
00:03.6,-0.459063492
00:03.6,0.619792003
00:03.6,-0.198114839
00:03.6,0.534189667
00:03.6,0.302060445
00:03.6,1.151819376
00:03.6,-0.739722112
00:03.6,0.62961662
00:03.6,0.573220435
00:03.6,-0.486689419
00:03.6,0.503566668
00:03.6,0.168072482
00:03.6,-0.11373813
00:03.6,-0.411967743
00:03.6,-0.359554726
00:03.6,1.024906048
00:03.6,0.000341409
00:03.6,0.391065001
00:03.6,-0.395449691
00:03.6,-0.389926473
00:03.6,0.540992405
00:03.6,-0.674788106
00:03.6,-0.207606884
00:03.6,0.017013706
00:03.6,0.055686301
00:03.6,-0.089546643
00:03.6,0.197909891
00:03.6,0.346427878
00:03.6,0.367318773
00:03.6,-0.492901904
00:03.6,-0.142077549
00:03.6,0.597381431
00:03.6,0.447323594
00:03.6,-0.686429726
00:03.6,0.17573995
00:03.6,-0.989112625
00:03.6,0.023467451
00:03.6,0.948883508
00:03.6,-0.473946359
00:03.6,-0.417161523
00:03.6,0.382014891
00:03.6,-0.771400758
00:03.6,-0.316377515
00:03.6,0.298220569
00:03.6,-0.317142924
00:03.6,-0.117984994
00:03.6,0.372092855
00:03.6,0.210773042
00:03.6,0.133409198
00:03.6,-0.16956114
00:03.6,0.185030558
00:03.6,-0.06186634
00:03.6,0.228902805
00:03.6,-0.248466013
00:03.6,-0.091284487
00:03.6,-0.494978896
00:03.6,-0.017503805
00:03.6,-0.405500432
00:03.6,-0.557023225
00:03.6,0.129330574
00:03.6,0.106369888
00:03.6,0.391436867
00:03.6,-0.215562785
00:03.6,0.204026423
00:03.7,0.275398786
00:03.7,0.222386904
00:03.7,-0.412826841
00:03.7,0.074681741
00:03.7,0.182070148
00:03.7,0.003589233
00:03.7,-1.043238829
00:03.7,0.080244812
00:03.7,1.10626552
00:03.7,-0.180019634
00:03.7,-0.364038549
00:03.7,0.18667428
00:03.7,0.156189105
00:03.7,0.596367583
00:03.7,-0.628934078
00:03.7,0.365690126
00:03.7,0.295211031
00:03.7,-0.071073268
00:03.7,0.169343659
00:03.7,0.514728741
00:03.7,0.43615769
00:03.7,-0.571509656
00:03.7,0.410079093
00:03.7,-0.032344303
00:03.7,0.036437049
00:03.7,0.036598496
00:03.7,-0.075121494
00:03.7,0.595853749
00:03.7,-0.04185898
00:03.7,-0.559773064
00:03.7,-0.196764928
00:03.7,0.089347358
00:03.7,0.614607392
00:03.7,0.301547342
00:03.7,-0.425267639
00:03.7,1.242594958
00:03.7,0.132387655
00:03.7,0.637695369
00:03.7,-0.075857217
00:03.7,0.266679622
00:03.7,0.419734252
00:03.7,0.609097356
00:03.7,0.528684153
00:03.7,0.4360985
00:03.7,-0.157543366
00:03.7,-0.285873021
00:03.7,0.166303755
00:03.7,0.466564036
00:03.7,-0.11136035
00:03.7,0.532585983
00:03.7,0.726308373
00:03.7,-0.45816046
00:03.7,-0.418460352
00:03.7,-0.070187529
00:03.7,0.153806334
00:03.7,-0.262283507
00:03.7,0.676101339
00:03.7,0.212033431
00:03.7,0.019723524
00:03.7,-0.717954762
00:03.7,-0.657907908
00:03.7,0.140504625
00:03.7,-1.066297813
00:03.7,0.506318705
00:03.7,-0.079076922
00:03.7,1.621546485
00:03.7,1.153958125
00:03.7,-0.090724535
00:03.7,-0.053168501
00:03.7,0.497790757
00:03.7,0.851586305
00:03.7,-0.819014529
00:03.7,-0.893187733
00:03.7,-0.311017403
00:03.7,0.291368792
00:03.7,0.248436795
00:03.7,0.534885727
00:03.7,-0.599848764
00:03.7,-1.158071931
00:03.7,0.429007098
00:03.7,-0.414098136
00:03.7,-1.009243932
00:03.7,0.072531873
00:03.7,0.396587844
00:03.7,-0.061028566
00:03.7,-0.228924193
00:03.7,-0.079681116
00:03.7,-0.185291381
00:03.7,-0.674023556
00:03.7,-0.357340338
00:03.7,0.260639953
00:03.7,0.160839271
00:03.7,0.084029903
00:03.7,-0.497574241
00:03.7,-0.090751581
00:03.7,-1.088532523
00:03.7,0.089238332
00:03.7,0.714428854
00:03.7,-0.737066066
00:03.7,-0.292963837
00:03.8,0.164553389
00:03.8,0.626421317
00:03.8,-0.224112308
00:03.8,-0.346125165
00:03.8,-0.984461571
00:03.8,0.051719065
00:03.8,1.02103802
00:03.8,0.138679231
00:03.8,-0.01113949
00:03.8,0.161041155
00:03.8,-0.005546002
00:03.8,-0.406507186
00:03.8,0.411639958
00:03.8,0.112880762
00:03.8,0.008806626
00:03.8,-0.487683014
00:03.8,0.651753966
00:03.8,0.332351373
00:03.8,-0.276460419
00:03.8,0.500912427
00:03.8,-0.248785419
00:03.8,-0.391001746
00:03.8,-0.379851559
00:03.8,-0.885534277
00:03.8,0.23577119
00:03.8,-0.915572439
00:03.8,-0.614221916
00:03.8,-1.037794005
00:03.8,-0.043034846
00:03.8,-0.07516023
00:03.8,-0.163348107
00:03.8,-0.521288847
00:03.8,-0.586116877
00:03.8,0.232184932
00:03.8,-0.275275966
00:03.8,0.158179161
00:03.8,-0.442624343
00:03.8,0.090531371
00:03.8,0.651639019
00:03.8,0.2930829
00:03.8,-0.206206909
00:03.8,0.128599485
00:03.8,-0.120332587
00:03.8,0.003940092
00:03.8,-0.162805526
00:03.8,-0.082167603
00:03.8,0.106046677
00:03.8,-0.49667935
00:03.8,-0.507939413
00:03.8,-0.694271277
00:03.8,-0.800135552
00:03.8,-0.608641346
00:03.8,0.079731253
00:03.8,-0.446393758
00:03.8,0.256807232
00:03.8,0.017356874
00:03.8,-0.984252107
00:03.8,0.327487792
00:03.8,0.405399323
00:03.8,-0.496931337
00:03.8,0.210095771
00:03.8,-0.428249119
00:03.8,0.048835188
00:03.8,-0.632249203
00:03.8,-0.896553226
00:03.8,-0.191408595
00:03.8,-0.061864473
00:03.8,-0.198839847
00:03.8,-0.592015279
00:03.8,-0.199949531
00:03.8,0.134647376
00:03.8,-0.022446515
00:03.8,0.091250515
00:03.8,-0.3350576
00:03.8,0.585858957
00:03.8,-0.588086668
00:03.8,0.243780149
00:03.8,0.590945546
00:03.8,0.240454046
00:03.8,-0.101262114
00:03.8,-0.264148523
00:03.8,0.518043826
00:03.8,-0.711487463
00:03.8,-0.48506213
00:03.8,-0.198778883
00:03.8,0.618826879
00:03.8,0.189883818
00:03.8,-0.484022879
00:03.8,-0.155153853
00:03.8,-0.307161572
00:03.8,-0.354894496
00:03.8,0.489444779
00:03.8,-0.685871565
00:03.8,0.804390428
00:03.8,0.414114845
00:03.8,0.545430835
00:03.8,-0.231469756
00:03.8,-0.07497036
00:03.8,-0.716575907
00:03.8,-0.262331204
00:03.9,0.246827424
00:03.9,0.648031531
00:03.9,-0.553578408
00:03.9,-0.182752968
00:03.9,-0.07564961
00:03.9,-0.697894601
00:03.9,0.295674621
00:03.9,-0.361995166
00:03.9,-0.097695176
00:03.9,-0.225974686
00:03.9,-0.394669253
00:03.9,-0.003522493
00:03.9,-0.107804789
00:03.9,-0.185928941
00:03.9,-0.364230811
00:03.9,0.159762335
00:03.9,0.826808634
00:03.9,0.069943616
00:03.9,0.498059107
00:03.9,-0.695110963
00:03.9,0.07888072
00:03.9,-0.548684159
00:03.9,-0.738462464
00:03.9,-0.369685704
00:03.9,0.595949667
00:03.9,0.475007914
00:03.9,0.121502361
00:03.9,-0.76635028
00:03.9,-0.098140326
00:03.9,0.150850004
00:03.9,0.087768115
00:03.9,-0.921896792
00:03.9,-0.445158924
00:03.9,-0.032038882
00:03.9,0.268145455
00:03.9,-1.098063911
00:03.9,-0.081061988
00:03.9,0.071524385
00:03.9,0.424805994
00:03.9,0.346428792
00:03.9,0.291285659
00:03.9,-0.399970253
00:03.9,-0.954001069
00:03.9,-0.196526379
00:03.9,0.500815913
00:03.9,0.696727264
00:03.9,0.355274551
00:03.9,0.214670411
00:03.9,0.189819824
00:03.9,-0.278059373
00:03.9,-0.065030147
00:03.9,0.834534763
00:03.9,-0.471279003
00:03.9,0.807389395
00:03.9,-0.161014077
00:03.9,0.662716055
00:03.9,-0.703407505
00:03.9,0.292952101
00:03.9,-0.368385068
00:03.9,-0.707633596
00:03.9,0.109267021
00:03.9,0.504735894
00:03.9,-0.422470719
00:03.9,-0.74950798
00:03.9,-0.045922382
00:03.9,-0.043717664
00:03.9,0.274159814
00:03.9,0.474797286
00:03.9,-0.029707591
00:03.9,0.927751657
00:03.9,0.112117372
00:03.9,-0.173213253
00:03.9,-0.80578368
00:03.9,-0.13132976
00:03.9,-0.168193473
00:03.9,0.480152398
00:03.9,0.231241812
00:03.9,-0.589684561
00:03.9,0.086127193
00:03.9,0.335765586
00:03.9,0.76401568
00:03.9,0.443751984
00:03.9,0.380423327
00:03.9,0.030042997
00:03.9,0.194156003
00:03.9,0.62475245
00:03.9,-0.666388699
00:03.9,-0.174719664
00:03.9,-0.386284374
00:03.9,0.189576559
00:03.9,0.615111088
00:03.9,-0.298487143
00:03.9,-1.195152184
00:03.9,-0.206110373
00:03.9,0.456736866
00:03.9,0.268814951
00:03.9,0.214093124
00:03.9,-0.139996651
00:03.9,-0.639515368
00:03.9,0.257647161
00:04.0,-0.417140905
00:04.0,1.092048367
00:04.0,0.285253604
00:04.0,-0.290324151
00:04.0,-0.305692624
00:04.0,-0.046472103
00:04.0,-0.119750961
00:04.0,0.558416888
00:04.0,0.093208085
00:04.0,-0.365815869
00:04.0,0.945220343
00:04.0,0.024654166
00:04.0,0.384419838
00:04.0,-0.304113254
00:04.0,0.181557814
00:04.0,0.155554996
00:04.0,-0.944824646
00:04.0,1.007637555
00:04.0,0.64532223
00:04.0,-0.198597658
00:04.0,-0.55113487
00:04.0,0.173780807
00:04.0,0.04334885
00:04.0,0.177834474
00:04.0,0.095788698
00:04.0,0.253120495
00:04.0,0.72365285
00:04.0,0.284051603
00:04.0,-0.524827749
00:04.0,0.681281426
00:04.0,0.820307282
00:04.0,1.576028367
00:04.0,-0.561747017
00:04.0,0.121441007
00:04.0,-1.041049352
00:04.0,0.276574578
00:04.0,-0.274100149
00:04.0,0.961722897
00:04.0,-0.387307485
00:04.0,-0.844591519
00:04.0,-0.23563187
00:04.0,-0.987743886
00:04.0,0.375549727
00:04.0,-1.032541523
00:04.0,0.014228791
00:04.0,-1.03890591
00:04.0,-0.160148902
00:04.0,0.821689078
00:04.0,0.180323946
00:04.0,-0.431746802
00:04.0,-0.015601744
00:04.0,0.009008436
00:04.0,0.236315173
00:04.0,-0.683429182
00:04.0,0.296283637
00:04.0,-1.352195816
00:04.0,-0.314942276
00:04.0,-0.244136921
00:04.0,0.316663413
00:04.0,0.011315426
00:04.0,-0.702781527
00:04.0,-0.492496563
00:04.0,0.099340005
00:04.0,-0.039533671
00:04.0,-0.289562055
00:04.0,-0.240416895
00:04.0,0.348083999
00:04.0,-0.258846286
00:04.0,-0.044045622
00:04.0,1.084968294
00:04.0,-0.711841318
00:04.0,-0.925921366
00:04.0,0.391794832
00:04.0,-0.339321531
00:04.0,-0.159118764
00:04.0,-0.390578189
00:04.0,-0.12990007
00:04.0,0.799269056
00:04.0,0.401064229
00:04.0,0.431111756
00:04.0,-0.708113528
00:04.0,-0.575576868
00:04.0,-1.41953933
00:04.0,-0.404690411
00:04.0,0.478351593
00:04.0,0.258473258
00:04.0,-0.110756631
00:04.0,-0.011150142
00:04.0,-0.344442771
00:04.0,0.102379441
00:04.0,0.38293914
00:04.0,-0.807943394
00:04.0,0.149823844
00:04.0,0.466217435
00:04.0,-0.207550144
00:04.0,0.350350306
00:04.0,1.407327222
00:04.0,-0.052171396
00:04.0,0.196653525
00:04.0,-0.369028542
00:04.1,0.090625581
00:04.1,0.230135812
00:04.1,0.09742117
00:04.1,-0.50984766
00:04.1,0.103180886
00:04.1,0.731097969
00:04.1,0.224317882
00:04.1,0.480993595
00:04.1,-0.118505985
00:04.1,0.37495012
00:04.1,0.139633919
00:04.1,-0.475455365
00:04.1,0.159260502
00:04.1,-0.495848332
00:04.1,-0.316440137
00:04.1,0.094664154
00:04.1,0.148622137
00:04.1,-0.594616233
00:04.1,0.526992886
00:04.1,0.286003139
00:04.1,-0.352364218
00:04.1,-0.768792398
00:04.1,-0.07245229
00:04.1,-0.222971857
00:04.1,0.056570229
00:04.1,-0.181558331
00:04.1,-1.00372843
00:04.1,-0.194173469
00:04.1,-0.152809556
00:04.1,0.316830512
00:04.1,-0.349099837
00:04.1,0.839337337
00:04.1,-0.955820275
00:04.1,0.655583749
00:04.1,-0.112159485
00:04.1,0.429792436
00:04.1,0.039900742
00:04.1,0.569777768
00:04.1,-0.193680982
00:04.1,-0.549310213
00:04.1,0.710252144
00:04.1,-0.056740323
00:04.1,0.110779237
00:04.1,0.617375957
00:04.1,-0.515977621
00:04.1,0.297745449
00:04.1,-0.294947378
00:04.1,-0.066084678
00:04.1,0.036139483
00:04.1,-0.750110931
00:04.1,-0.389418521
00:04.1,0.675536446
00:04.1,0.443095594
00:04.1,-0.031319789
00:04.1,0.121561729
00:04.1,-0.147121253
00:04.1,0.678291693
00:04.1,-0.100176289
00:04.1,0.115921046
00:04.1,0.573015072
00:04.1,-0.388685742
00:04.1,0.779394592
00:04.1,-0.765230705
00:04.1,0.814821066
00:04.1,-0.186337792
00:04.1,-0.121349374
00:04.1,-0.945005086
00:04.1,-0.227397359
00:04.1,-0.519903266
00:04.1,-0.303823173
00:04.1,-0.068655483
00:04.1,0.478895807
00:04.1,0.103801676
00:04.1,0.153838327
00:04.1,-0.547759694
00:04.1,-0.440377045
00:04.1,0.899362509
00:04.1,-0.367600517
00:04.1,0.828104126
00:04.1,-0.121530599
00:04.1,0.001143968
00:04.1,0.53518258
00:04.1,0.635946211
00:04.1,-0.05540628
00:04.1,-0.194121527
00:04.1,-0.027960224
00:04.1,0.168978764
00:04.1,0.445651843
00:04.1,0.002114929
00:04.1,0.309443149
00:04.1,0.819179866
00:04.1,0.190654806
00:04.1,0.155826428
00:04.1,-0.759455413
00:04.1,-1.315365068
00:04.1,0.194187865
00:04.1,-0.047412116
00:04.1,-0.257391337
00:04.1,0.121765102
00:04.1,-0.030201865
00:04.2,0.563890125
00:04.2,0.043055434
00:04.2,-0.373461643
00:04.2,0.495083119
00:04.2,-0.108565537
00:04.2,0.263268342
00:04.2,-0.238705353
00:04.2,-0.324913443
00:04.2,0.042084115
00:04.2,0.006414322
00:04.2,0.239913518
00:04.2,-0.134322877
00:04.2,-0.918179892
00:04.2,-0.216386942
00:04.2,0.396909234
00:04.2,-0.14868804
00:04.2,-0.123191701
00:04.2,0.493188253
00:04.2,-0.355986614
00:04.2,-0.771401609
00:04.2,-0.08031556
00:04.2,-0.242086976
00:04.2,-0.48312316
00:04.2,-0.087689228
00:04.2,0.245752824
00:04.2,-0.004644281
00:04.2,0.153490536
00:04.2,0.906703849
00:04.2,-0.171439431
00:04.2,0.139174317
00:04.2,-0.254606681
00:04.2,-0.42317986
00:04.2,-0.292453827
00:04.2,-0.239379286
00:04.2,0.179737899
00:04.2,1.174537893
00:04.2,-0.358021718
00:04.2,-0.208312653
00:04.2,-0.031561507
00:04.2,0.197899424
00:04.2,0.131775406
00:04.2,0.642047897
00:04.2,-1.213196035
00:04.2,-1.193464935
00:04.2,-0.247939086
00:04.2,0.548650094
00:04.2,-0.782824016
00:04.2,-1.50381617
00:04.2,0.285589703
00:04.2,0.121828612
00:04.2,-0.545104203
00:04.2,-0.4927698
00:04.2,-0.48487186
00:04.2,0.055267659
00:04.2,-0.313157638
00:04.2,0.247031959
00:04.2,-1.427313331
00:04.2,-0.428425933
00:04.2,-0.56302698
00:04.2,-0.128170339
00:04.2,-0.269023879
00:04.2,0.39892189
00:04.2,-0.929668386
00:04.2,0.022745738
00:04.2,0.279168212
00:04.2,0.928323718
00:04.2,-0.240882986
00:04.2,0.162229302
00:04.2,-0.901931396
00:04.2,-1.195978102
00:04.2,0.422387188
00:04.2,-0.002780147
00:04.2,0.589256345
00:04.2,-0.686701444
00:04.2,0.25995107
00:04.2,0.93440892
00:04.2,0.209852804
00:04.2,0.138290753
00:04.2,0.00427804
00:04.2,-0.785440729
00:04.2,0.677786468
00:04.2,-0.30542882
00:04.2,0.252241628
00:04.2,-0.781517153
00:04.2,-0.589729832
00:04.2,0.7175437
00:04.2,-0.173651144
00:04.2,0.726637738
00:04.2,-0.03911533
00:04.2,-0.920948886
00:04.2,0.4460338
00:04.2,-0.294946159
00:04.2,0.349344407
00:04.2,0.012605434
00:04.2,-0.771559114
00:04.2,0.082147383
00:04.2,1.098111571
00:04.2,0.246493229
00:04.2,-0.028758877
00:04.2,0.537671701
00:04.3,0.105334233
00:04.3,0.104767115
00:04.3,-0.545812586
00:04.3,0.116924013
00:04.3,0.517721708
00:04.3,-0.418031076
00:04.3,0.712247911
00:04.3,-0.045853012
00:04.3,-0.443884756
00:04.3,0.498816038
00:04.3,-0.143397118
00:04.3,0.379757444
00:04.3,-0.145879316
00:04.3,-0.029913072
00:04.3,0.246780102
00:04.3,0.145448529
00:04.3,-0.99776589
00:04.3,-0.56062187
00:04.3,0.464704992
00:04.3,-0.066068294
00:04.3,-0.261865651
00:04.3,-0.679287008
00:04.3,-0.539868161
00:04.3,-1.01089932
00:04.3,-0.050640359
00:04.3,-0.29921879
00:04.3,-0.483293945
00:04.3,-0.034061713
00:04.3,0.181985315
00:04.3,1.046598966
00:04.3,-0.75594171
00:04.3,0.579690522
00:04.3,0.486550781
00:04.3,-0.38954637
00:04.3,0.101617977
00:04.3,-0.228816625
00:04.3,0.09284429
00:04.3,0.754565507
00:04.3,0.302803116
00:04.3,0.254304187
00:04.3,-0.21515466
00:04.3,-0.742028332
00:04.3,-0.104234105
00:04.3,0.603304077
00:04.3,-0.763583928
00:04.3,-0.527544684
00:04.3,0.063133868
00:04.3,-0.492327392
00:04.3,-0.396261724
00:04.3,-0.211799291
00:04.3,-0.682808702
00:04.3,-0.487060923
00:04.3,0.351713958
00:04.3,-0.653684891
00:04.3,-0.798936067
00:04.3,-0.31501249
00:04.3,0.365977751
00:04.3,-0.098460904
00:04.3,-0.232290539
00:04.3,0.022179399
00:04.3,-0.872853716
00:04.3,0.247352827
00:04.3,0.191717516
00:04.3,-0.204654237
00:04.3,0.502962256
00:04.3,-0.563748049
00:04.3,0.563954497
00:04.3,0.077246833
00:04.3,-0.168276295
00:04.3,-0.009936818
00:04.3,-0.053632383
00:04.3,0.610141448
00:04.3,-0.538339564
00:04.3,-0.38125962
00:04.3,0.518151446
00:04.3,-0.297767468
00:04.3,0.450266539
00:04.3,0.849717992
00:04.3,-0.200897513
00:04.3,0.340681163
00:04.3,-0.576846141
00:04.3,0.377366649
00:04.3,0.099711993
00:04.3,0.236519141
00:04.3,-0.322786036
00:04.3,-0.830541708
00:04.3,0.251626032
00:04.3,-1.031701576
00:04.3,-0.158675246
00:04.3,0.470590933
00:04.3,0.095948868
00:04.3,0.974171322
00:04.3,0.512554576
00:04.3,-0.326949194
00:04.3,0.01365669
00:04.3,-0.023685351
00:04.3,-0.791088382
00:04.3,-0.470199458
00:04.3,-0.280380453
00:04.4,-1.018110251
00:04.4,0.023746734
00:04.4,-0.124535922
00:04.4,-0.836446951
00:04.4,0.202106433
00:04.4,0.357936372
00:04.4,0.113517239
00:04.4,-0.162034088
00:04.4,0.295721076
00:04.4,0.34011018
00:04.4,0.153701785
00:04.4,-0.412306125
00:04.4,0.138300383
00:04.4,0.597740325
00:04.4,-0.298314529
00:04.4,1.04896967
00:04.4,-0.262815467
00:04.4,0.016203507
00:04.4,-0.336242798
00:04.4,0.111635418
00:04.4,-0.871110846
00:04.4,-0.273020899
00:04.4,-0.5460606
00:04.4,0.067669174
00:04.4,0.497223688
00:04.4,0.323003094
00:04.4,-1.18582968
00:04.4,1.021034826
00:04.4,0.14763997
00:04.4,-0.38824957
00:04.4,0.078563959
00:04.4,0.088094911
00:04.4,-0.333424358
00:04.4,0.098958334
00:04.4,-0.303736144
00:04.4,-0.202180996
00:04.4,-0.343139568
00:04.4,-0.716335645
00:04.4,0.072918235
00:04.4,0.292649718
00:04.4,0.257441798
00:04.4,0.409962626
00:04.4,0.162170105
00:04.4,-0.266362749
00:04.4,0.419831932
00:04.4,-0.67875877
00:04.4,-0.450335691
00:04.4,-0.482100036
00:04.4,0.54002803
00:04.4,0.471394257
00:04.4,0.243652619
00:04.4,0.535964933
00:04.4,-0.439641391
00:04.4,0.17429756
00:04.4,-0.062587214
00:04.4,0.423441052
00:04.4,-0.057612116
00:04.4,-0.192471444
00:04.4,0.270454259
00:04.4,0.438084584
00:04.4,-0.334172597
00:04.4,-0.030537836
00:04.4,-0.529220317
00:04.4,-1.249030509
00:04.4,0.100229816
00:04.4,0.304452678
00:04.4,0.131033405
00:04.4,-0.974780859
00:04.4,-0.175424715
00:04.4,-1.10917388
00:04.4,0.684850554
00:04.4,-0.543027291
00:04.4,0.627701805
00:04.4,0.472934822
00:04.4,-0.450295176
00:04.4,-0.566392476
00:04.4,0.175185108
00:04.4,-0.422162019
00:04.4,0.051242321
00:04.4,-0.241413795
00:04.4,-0.890579207
00:04.4,-1.11523401
00:04.4,0.113342124
00:04.4,-0.280778873
00:04.4,-0.276544908
00:04.4,0.34793192
00:04.4,0.586721138
00:04.4,-0.136272361
00:04.4,-0.170299353
00:04.4,0.250071517
00:04.4,-0.678467785
00:04.4,0.111576527
00:04.4,0.275942986
00:04.4,0.340115104
00:04.4,-0.968376351
00:04.4,-0.380677635
00:04.4,-0.439131626
00:04.4,0.049943477
00:04.4,0.24037229
00:04.4,0.748355204
00:04.4,-0.24748274
00:04.5,-0.248786249
00:04.5,0.574836009
00:04.5,0.148288469
00:04.5,0.633825756
00:04.5,0.144364002
00:04.5,-0.578558309
00:04.5,-0.666564177
00:04.5,-0.775756125
00:04.5,0.331025917
00:04.5,0.594298412
00:04.5,0.924681071
00:04.5,0.421552666
00:04.5,0.581419289
00:04.5,-0.290008166
00:04.5,-0.578207908
00:04.5,0.425039666
00:04.5,0.208840376
00:04.5,0.053722187
00:04.5,0.19368574
00:04.5,0.161592741
00:04.5,0.64190843
00:04.5,0.647492792
00:04.5,0.272110176
00:04.5,0.422901436
00:04.5,0.257031276
00:04.5,-0.230584866
00:04.5,0.378282337
00:04.5,-0.697247534
00:04.5,0.526945776
00:04.5,-0.59726147
00:04.5,0.142901643
00:04.5,-0.422576979
00:04.5,0.276694492
00:04.5,-0.016962613
00:04.5,-0.797377979
00:04.5,0.210349816
00:04.5,-0.288960388
00:04.5,0.44057336
00:04.5,0.000662844
00:04.5,0.197710493
00:04.5,-0.478784478
00:04.5,-0.294666116
00:04.5,-0.229319318
00:04.5,0.42835124
00:04.5,0.838688544
00:04.5,-0.402585876
00:04.5,0.538424072
00:04.5,-1.084838709
00:04.5,-0.597094701
00:04.5,-0.479389228
00:04.5,-0.676254345
00:04.5,-0.791794195
00:04.5,0.206499456
00:04.5,-0.107033849
00:04.5,0.189702699
00:04.5,0.345236343
00:04.5,0.132808497
00:04.5,0.328881588
00:04.5,-0.034766143
00:04.5,-0.593496694
00:04.5,0.52890709
00:04.5,-0.294556066
00:04.5,-0.467798149
00:04.5,-0.088958938
00:04.5,-0.45640546
00:04.5,-0.208715191
00:04.5,0.172026961
00:04.5,0.17417087
00:04.5,-0.448915033
00:04.5,-0.243852686
00:04.5,0.537166502
00:04.5,0.248200059
00:04.5,1.03753252
00:04.5,0.590064087
00:04.5,0.572146534
00:04.5,-0.693934275
00:04.5,0.381930176
00:04.5,-0.026553401
00:04.5,-0.275490902
00:04.5,0.08400767
00:04.5,0.472605767
00:04.5,0.250415796
00:04.5,-0.439236901
00:04.5,0.371229457
00:04.5,-0.318793771
00:04.5,0.108341559
00:04.5,-0.151675034
00:04.5,-0.109433126
00:04.5,0.383121488
00:04.5,-0.52009686
00:04.5,0.972597537
00:04.5,-0.910543035
00:04.5,-0.298833842
00:04.5,0.185105945
00:04.5,0.292157083
00:04.5,-0.05023786
00:04.5,-0.028695352
00:04.5,0.205275043
00:04.5,-0.115534739
00:04.5,0.696590629
00:04.6,0.419674557
00:04.6,0.436412176
00:04.6,-0.483078362
00:04.6,-0.039694212
00:04.6,-0.150232974
00:04.6,-0.502800688
00:04.6,0.180082092
00:04.6,-0.268822879
00:04.6,0.327701915
00:04.6,-0.535095781
00:04.6,0.859520306
00:04.6,-0.448166329
00:04.6,0.109651169
00:04.6,0.395929655
00:04.6,-0.285320215
00:04.6,0.426234322
00:04.6,-0.614591799
00:04.6,0.72605885
00:04.6,0.007074632
00:04.6,-0.298205704
00:04.6,-0.149590886
00:04.6,0.404459635
00:04.6,-0.292227646
00:04.6,-0.374678845
00:04.6,-0.110768299
00:04.6,-0.588481056
00:04.6,0.910271954
00:04.6,-0.283197296
00:04.6,0.415808393
00:04.6,0.104735042
00:04.6,-0.492267025
00:04.6,-0.002977355
00:04.6,0.39200139
00:04.6,-0.094130668
00:04.6,0.596556473
00:04.6,0.510757696
00:04.6,0.459457427
00:04.6,-0.229828386
00:04.6,-0.539921224
00:04.6,-0.306793803
00:04.6,0.09812047
00:04.6,0.272893357
00:04.6,-1.085785702
00:04.6,-0.004056601
00:04.6,0.079044613
00:04.6,-0.138772128
00:04.6,0.64563692
00:04.6,0.210890037
00:04.6,0.655095954
00:04.6,-0.10798026
00:04.6,0.468738746
00:04.6,0.817533197
00:04.6,0.655846725
00:04.6,-0.546070797
00:04.6,-0.126838039
00:04.6,-0.172582353
00:04.6,0.244627268
00:04.6,0.343176778
00:04.6,-0.419446337
00:04.6,0.033919257
00:04.6,-1.009963666
00:04.6,0.720972503
00:04.6,-0.25618712
00:04.6,0.02793197
00:04.6,-0.154824857
00:04.6,0.573013788
00:04.6,-1.418753221
00:04.6,-0.008305171
00:04.6,-0.052909379
00:04.6,-0.226818194
00:04.6,0.863113273
00:04.6,-0.443664729
00:04.6,0.385898089
00:04.6,0.178126394
00:04.6,0.630759626
00:04.6,-0.333594542
00:04.6,-0.36648445
00:04.6,0.548034954
00:04.6,0.212660654
00:04.6,-0.772468673
00:04.6,-0.269652507
00:04.6,0.193191327
00:04.6,0.418882111
00:04.6,-0.339615327
00:04.6,-1.457127995
00:04.6,0.261611593
00:04.6,-0.610160345
00:04.6,-1.008669399
00:04.6,-1.416162962
00:04.6,0.40699043
00:04.6,0.064308725
00:04.6,-0.11282819
00:04.6,0.694512181
00:04.6,0.318662342
00:04.6,0.808150021
00:04.6,-0.696367736
00:04.6,-0.017275312
00:04.6,-0.808356687
00:04.6,-0.114691166
00:04.6,-0.124307927
00:04.7,0.313306819
00:04.7,0.022781941
00:04.7,0.311703569
00:04.7,0.351720067
00:04.7,1.077464339
00:04.7,-0.157648328
00:04.7,-0.47051135
00:04.7,0.123041808
00:04.7,-0.401140014
00:04.7,0.740980384
00:04.7,-0.141609019
00:04.7,-0.282788184
00:04.7,-0.235657861
00:04.7,0.359208712
00:04.7,-0.078873492
00:04.7,-0.32083341
00:04.7,0.832675959
00:04.7,-0.42808492
00:04.7,0.017783037
00:04.7,0.326153076
00:04.7,-0.815667555
00:04.7,0.240130251
00:04.7,-0.527553838
00:04.7,0.41139139
00:04.7,-0.481325506
00:04.7,0.346384516
00:04.7,0.552916533
00:04.7,0.430718263
00:04.7,0.125658324
00:04.7,-0.115650471
00:04.7,-0.288209788
00:04.7,0.735517345
00:04.7,-0.34974761
00:04.7,-0.518533037
00:04.7,0.332684468
00:04.7,-0.398068402
00:04.7,-0.475031749
00:04.7,-0.721802131
00:04.7,-0.24145492
00:04.7,-0.041357512
00:04.7,0.121545864
00:04.7,0.475653122
00:04.7,0.263448962
00:04.7,-0.09543611
00:04.7,-0.099097838
00:04.7,0.255078734
00:04.7,0.636285081
00:04.7,0.0631571
00:04.7,-0.234565427
00:04.7,-0.496433001
00:04.7,-0.722602632
00:04.7,0.333134836
00:04.7,0.288989262
00:04.7,0.288681763
00:04.7,-0.064329723
00:04.7,0.703467373
00:04.7,-0.242059247
00:04.7,0.477634619
00:04.7,-0.019371447
00:04.7,-0.304175382
00:04.7,0.296265154
00:04.7,0.204818059
00:04.7,0.17848638
00:04.7,0.040639211
00:04.7,-0.018946541
00:04.7,1.194185996
00:04.7,0.592128323
00:04.7,0.361413447
00:04.7,0.055899579
00:04.7,0.5035786
00:04.7,0.258997388
00:04.7,0.013102376
00:04.7,-0.151782163
00:04.7,-0.040458669
00:04.7,-1.585212868
00:04.7,0.10530042
00:04.7,-0.24423804
00:04.7,0.796334999
00:04.7,0.009672035
00:04.7,-0.59448171
00:04.7,-0.024940077
00:04.7,-0.523060543
00:04.7,0.236703708
00:04.7,0.145473682
00:04.7,0.478919816
00:04.7,-0.395440896
00:04.7,0.017004048
00:04.7,-0.682510898
00:04.7,0.350747391
00:04.7,0.25943559
00:04.7,0.247902511
00:04.7,0.000809516
00:04.7,0.207386445
00:04.7,0.802169554
00:04.7,-0.142547129
00:04.7,0.069322592
00:04.7,-0.54306315
00:04.7,-0.434130481
00:04.7,0.048906647
00:04.7,0.551966773
00:04.8,-0.128140412
00:04.8,-0.117958265
00:04.8,-0.203442622
00:04.8,-0.267378335
00:04.8,0.147485728
00:04.8,-0.748628823
00:04.8,0.640469788
00:04.8,-0.332711149
00:04.8,0.360951743
00:04.8,-0.634999299
00:04.8,0.334420065
00:04.8,0.335972304
00:04.8,0.192101036
00:04.8,-0.497214261
00:04.8,0.124774095
00:04.8,-0.591528092
00:04.8,-0.126381628
00:04.8,0.51470655
00:04.8,0.398350964
00:04.8,0.007591471
00:04.8,-0.487403288
00:04.8,0.322793856
00:04.8,0.009690619
00:04.8,-1.160157799
00:04.8,0.391314913
00:04.8,-0.012116417
00:04.8,0.601225624
00:04.8,-0.547635259
00:04.8,-1.588351907
00:04.8,0.139541929
00:04.8,0.145781838
00:04.8,-0.845335814
00:04.8,-0.489249773
00:04.8,1.377608872
00:04.8,-0.152805307
00:04.8,0.365479488
00:04.8,-0.325329914
00:04.8,-1.045151449
00:04.8,-0.085129123
00:04.8,-0.13280228
00:04.8,-0.199939119
00:04.8,-0.057320418
00:04.8,0.132134136
00:04.8,-0.075058476
00:04.8,-0.632003084
00:04.8,0.243092396
00:04.8,-0.974685878
00:04.8,-1.025178729
00:04.8,0.369590247
00:04.8,0.253510136
00:04.8,-0.028697683
00:04.8,-0.697724252
00:04.8,-0.35395547
00:04.8,-0.131373374
00:04.8,-0.797946984
00:04.8,-0.369514329
00:04.8,0.326165169
00:04.8,0.713652682
00:04.8,-0.209717376
00:04.8,0.378244177
00:04.8,-0.957030035
00:04.8,0.329725621
00:04.8,-0.401974207
00:04.8,0.153672808
00:04.8,-0.123876209
00:04.8,0.660207005
00:04.8,-0.437217824
00:04.8,0.313803149
00:04.8,-0.139753732
00:04.8,-0.079152739
00:04.8,-0.091926947
00:04.8,-0.422836552
00:04.8,-0.007049483
00:04.8,-0.031324111
00:04.8,0.120620124
00:04.8,0.042252573
00:04.8,0.398997275
00:04.8,0.461754308
00:04.8,-0.525311661
00:04.8,0.43438625
00:04.8,-0.593168214
00:04.8,0.293927944
00:04.8,0.309869392
00:04.8,-0.955658446
00:04.8,0.046489623
00:04.8,-0.234248057
00:04.8,-0.379382629
00:04.8,0.675426165
00:04.8,-0.32683957
00:04.8,-0.403188465
00:04.8,0.03784747
00:04.8,0.342794873
00:04.8,-0.070824293
00:04.8,0.583185273
00:04.8,0.265487831
00:04.8,-1.08910566
00:04.8,-0.264733482
00:04.8,-0.28092105
00:04.8,0.239680477
00:04.8,-1.312408528
00:04.9,1.274504854
00:04.9,0.265513047
00:04.9,0.074438402
00:04.9,0.590783858
00:04.9,1.171827026
00:04.9,0.435373322
00:04.9,0.474406548
00:04.9,0.065345012
00:04.9,-0.070762877
00:04.9,-0.237897722
00:04.9,-0.413055996
00:04.9,-0.34350705
00:04.9,-0.675277982
00:04.9,-0.037935725
00:04.9,-0.842333789
00:04.9,0.095458262
00:04.9,-0.018165304
00:04.9,0.073467649
00:04.9,-0.261065785
00:04.9,1.538430185
00:04.9,0.68005795
00:04.9,-0.62227125
00:04.9,0.116434044
00:04.9,-0.304003071
00:04.9,-0.507239863
00:04.9,-0.670036036
00:04.9,0.216108345
00:04.9,-0.340690118
00:04.9,0.483913012
00:04.9,0.496891107
00:04.9,0.686957193
00:04.9,-0.426193383
00:04.9,0.237682805
00:04.9,0.316227108
00:04.9,-0.237089088
00:04.9,-0.385885979
00:04.9,0.804760333
00:04.9,0.113747938
00:04.9,0.317983875
00:04.9,-0.411038006
00:04.9,-0.609642233
00:04.9,-0.284724887
00:04.9,-0.062010694
00:04.9,-0.532110003
00:04.9,-0.004922404
00:04.9,-0.844252594
00:04.9,-0.560023711
00:04.9,0.335455624
00:04.9,0.30189526
00:04.9,-0.195938383
00:04.9,-0.508882155
00:04.9,-0.513701776
00:04.9,-0.186634123
00:04.9,0.322259246
00:04.9,0.464122846
00:04.9,-0.248265868
00:04.9,-0.576746213
00:04.9,0.133921819
00:04.9,-0.411767485
00:04.9,-0.259126319
00:04.9,0.662638045
00:04.9,0.413557714
00:04.9,0.078987156
00:04.9,-0.635959501
00:04.9,0.105698284
00:04.9,0.531328645
00:04.9,-0.187816833
00:04.9,0.675557045
00:04.9,0.646372645
00:04.9,0.831866416
00:04.9,0.152621563
00:04.9,0.29369585
00:04.9,0.707093644
00:04.9,0.223696969
00:04.9,-0.250617054
00:04.9,-0.224271418
00:04.9,0.119277477
00:04.9,-0.645280711
00:04.9,-0.071629458
00:04.9,0.548273559
00:04.9,-1.095626926
00:04.9,0.767241051
00:04.9,0.561187109
00:04.9,-0.229882308
00:04.9,0.271695414
00:04.9,0.001573863
00:04.9,0.614995184
00:04.9,0.491341571
00:04.9,-0.700035362
00:04.9,0.293631207
00:04.9,-0.102813927
00:04.9,0.041416285
00:04.9,-0.36408595
00:04.9,0.874068535
00:04.9,0.52003091
00:04.9,-0.369885582
00:04.9,-0.667305303
00:04.9,-0.192836315
00:04.9,0.217251323
00:04.9,0.120102922
00:05.0,0.626566412
00:05.0,0.394959861
00:05.0,0.484784513
00:05.0,0.1634277
00:05.0,-0.694649365
00:05.0,-0.097849266
00:05.0,0.53004487
00:05.0,-0.025761464
00:05.0,0.251545184
00:05.0,-0.159374158
00:05.0,-0.514905924
00:05.0,-0.061672032
00:05.0,0.154523722
00:05.0,-0.32784386
00:05.0,-0.117855622
00:05.0,-0.469731621
00:05.0,0.559622459
00:05.0,-0.147227879
00:05.0,0.726377773
00:05.0,0.764373925
00:05.0,-0.040522982
00:05.0,-0.504224366
00:05.0,-1.042948939
00:05.0,-0.736018537
00:05.0,-0.686917412
00:05.0,0.689234814
00:05.0,0.057912294
00:05.0,0.194802262
00:05.0,-1.110210504
00:05.0,-0.598983215
00:05.0,0.443539888
00:05.0,0.143387056
00:05.0,-0.073602639
00:05.0,0.282421179
00:05.0,0.817898903
00:05.0,-0.110521232
00:05.0,0.034684901
00:05.0,0.096298459
00:05.0,1.196054818
00:05.0,-1.049678132
00:05.0,0.341611507
00:05.0,-0.057401124
00:05.0,0.283385863
00:05.0,-0.328686277
00:05.0,-0.024482515
00:05.0,0.35570529
00:05.0,1.556455101
00:05.0,0.404018095
00:05.0,-0.424032799
00:05.0,-0.211879841
00:05.0,-0.226707054
00:05.0,-0.897821586
00:05.0,-0.165045096
00:05.0,0.366414541
00:05.0,-0.63711606
00:05.0,0.524241326
00:05.0,0.243887411
00:05.0,-0.367116661
00:05.0,-0.070764819
00:05.0,0.799160904
00:05.0,0.366773907
00:05.0,0.004391827
00:05.0,-0.118841658
00:05.0,0.038304535
00:05.0,-0.255881779
00:05.0,-1.052374753
00:05.0,1.021088955
00:05.0,0.0776625
00:05.0,0.199073633
00:05.0,-0.028953875
00:05.0,-0.3675584
00:05.0,-0.09296224
00:05.0,-0.799697381
00:05.0,1.138543249
00:05.0,-0.617255999
00:05.0,-0.515983142
00:05.0,-0.220129602
00:05.0,0.644037862
00:05.0,0.0072545
00:05.0,-0.618067898
00:05.0,0.62716918
00:05.0,0.365500313
00:05.0,0.269217479
00:05.0,0.357867121
00:05.0,1.19718095
00:05.0,1.092547448
00:05.0,-0.343357672
00:05.0,0.811942496
00:05.0,0.191584095
00:05.0,0.249547908
00:05.0,-0.846135416
00:05.0,-0.085192883
00:05.0,-0.406411795
00:05.0,0.414029407
00:05.0,0.53554025
00:05.0,-1.037243176
00:05.0,-0.011017432
00:05.0,0.560930752
00:05.0,-0.093339481
00:05.0,0.364531823
00:05.1,0.175582734
00:05.1,0.170830116
00:05.1,-0.135657489
00:05.1,-0.608290402
00:05.1,-0.560765074
00:05.1,0.354676257
00:05.1,0.009729128
00:05.1,-0.069256122
00:05.1,-0.211945021
00:05.1,-0.152594423
00:05.1,0.523455897
00:05.1,-0.167622041
00:05.1,-0.670532357
00:05.1,0.371825888
00:05.1,-0.102438332
00:05.1,0.015697933
00:05.1,0.803789153
00:05.1,-0.010280279
00:05.1,0.144591837
00:05.1,-0.589461746
00:05.1,-0.109834726
00:05.1,0.304763023
00:05.1,-0.777686867
00:05.1,0.100422547
00:05.1,0.050395536
00:05.1,0.020643728
00:05.1,0.518579449
00:05.1,0.167219257
00:05.1,0.739035949
00:05.1,-0.496794758
00:05.1,0.067962284
00:05.1,0.042233393
00:05.1,-0.534627247
00:05.1,0.478147501
00:05.1,1.162336653
00:05.1,-0.008503037
00:05.1,0.252510544
00:05.1,0.042259238
00:05.1,-0.356792335
00:05.1,-0.910380139
00:05.1,-0.352886742
00:05.1,-0.69597919
00:05.1,0.852051039
00:05.1,-0.057554847
00:05.1,-0.172959665
00:05.1,0.444576912
00:05.1,-0.560875551
00:05.1,-0.383432019
00:05.1,0.034036135
00:05.1,0.514384496
00:05.1,0.250842523
00:05.1,0.124162571
00:05.1,0.039058868
00:05.1,0.200117928
00:05.1,0.100826453
00:05.1,-0.514986137
00:05.1,0.023039611
00:05.1,-0.536844329
00:05.1,0.040541271
00:05.1,-0.240323971
00:05.1,1.269690811
00:05.1,-0.019947192
00:05.1,-0.702119783
00:05.1,-0.067090105
00:05.1,0.259679373
00:05.1,0.836681973
00:05.1,-0.2947262
00:05.1,-0.791213987
00:05.1,0.408418506
00:05.1,-0.690299353
00:05.1,-0.218077721
00:05.1,-0.128810243
00:05.1,-0.034816727
00:05.1,0.344582229
00:05.1,-0.341817141
00:05.1,-0.136864626
00:05.1,-0.007135176
00:05.1,0.074798979
00:05.1,0.048913587
00:05.1,0.218002888
00:05.1,0.421919755
00:05.1,0.196317058
00:05.1,0.226792762
00:05.1,-0.791111583
00:05.1,0.02511385
00:05.1,0.239753774
00:05.1,0.364470597
00:05.1,-0.346175387
00:05.1,-0.329519637
00:05.1,-0.287050338
00:05.1,0.26820695
00:05.1,0.516940527
00:05.1,-0.203730054
00:05.1,0.453981157
00:05.1,0.061739905
00:05.1,-0.062142889
00:05.1,-0.105692115
00:05.1,0.373305682
00:05.1,0.162788908
00:05.1,1.137912714
00:05.2,-0.426112321
00:05.2,0.259050851
00:05.2,-0.264600505
00:05.2,-0.434643493
00:05.2,-0.005433569
00:05.2,0.06867624
00:05.2,1.459086778
00:05.2,-0.092072908
00:05.2,-0.565089365
00:05.2,0.136505359
00:05.2,-1.037320019
00:05.2,-0.045978391
00:05.2,0.008012641
00:05.2,0.397300191
00:05.2,0.486811125
00:05.2,-0.251784809
00:05.2,-0.075307007
00:05.2,-0.383060415
00:05.2,-0.564031277
00:05.2,0.15494739
00:05.2,-0.636792774
00:05.2,-0.20731345
00:05.2,-0.49758698
00:05.2,0.274841593
00:05.2,0.90071505
00:05.2,-0.650793991
00:05.2,-0.926509241
00:05.2,-0.062443443
00:05.2,0.007848898
00:05.2,0.109329653
00:05.2,-0.223160258
00:05.2,-0.100319649
00:05.2,0.183755205
00:05.2,0.520215446
00:05.2,-0.977524385
00:05.2,-0.18446972
00:05.2,0.106904397
00:05.2,-0.458988052
00:05.2,0.865584816
00:05.2,-0.31770494
00:05.2,-0.020646344
00:05.2,0.278011048
00:05.2,-0.295642394
00:05.2,-0.923286524
00:05.2,-0.214327263
00:05.2,0.514720278
00:05.2,-0.168447563
00:05.2,-0.423217151
00:05.2,0.462836105
00:05.2,-0.165387448
00:05.2,-0.255080407
00:05.2,0.074728045
00:05.2,0.385375105
00:05.2,1.190856766
00:05.2,0.413618054
00:05.2,0.579919983
00:05.2,-0.252983099
00:05.2,-0.512934053
00:05.2,0.031165675
00:05.2,0.053584958
00:05.2,-0.539256371
00:05.2,-0.087647265
00:05.2,0.199658801
00:05.2,0.180196698
00:05.2,0.252143927
00:05.2,0.145482365
00:05.2,-0.25350433
00:05.2,-0.256950313
00:05.2,-0.599475699
00:05.2,0.89238752
00:05.2,0.006725182
00:05.2,-0.112426528
00:05.2,-0.464396041
00:05.2,1.467828951
00:05.2,-0.536664016
00:05.2,-0.214423963
00:05.2,0.207918418
00:05.2,0.300106483
00:05.2,0.478966028
00:05.2,0.903804254
00:05.2,0.253078828
00:05.2,-0.5280154
00:05.2,-0.128472563
00:05.2,0.153916186
00:05.2,1.034113021
00:05.2,-0.698902739
00:05.2,0.601288253
00:05.2,0.089957185
00:05.2,0.418915268
00:05.2,-0.050997358
00:05.2,-0.421216315
00:05.2,0.37543639
00:05.2,0.327215514
00:05.2,0.486028483
00:05.2,-0.006652318
00:05.2,-0.299911012
00:05.2,-0.779393498
00:05.2,0.409686634
00:05.2,0.211944741
00:05.2,-0.482891316
00:05.3,-0.269286837
00:05.3,-0.233379406
00:05.3,-0.741492216
00:05.3,-0.408841198
00:05.3,-0.566915178
00:05.3,-0.206239506
00:05.3,-0.369348749
00:05.3,-0.81350246
00:05.3,1.011295115
00:05.3,0.626270366
00:05.3,-0.389509711
00:05.3,0.136210698
00:05.3,0.208732545
00:05.3,0.595542927
00:05.3,-0.409302513
00:05.3,0.546053392
00:05.3,-0.273952652
00:05.3,-0.667931202
00:05.3,0.36206828
00:05.3,0.645379212
00:05.3,1.293954487
00:05.3,-0.599862633
00:05.3,0.349459843
00:05.3,-0.204900622
00:05.3,0.391679355
00:05.3,-0.735244776
00:05.3,-0.631384888
00:05.3,-0.387937412
00:05.3,0.039482023
00:05.3,-0.320540633
00:05.3,0.329527172
00:05.3,0.513447309
00:05.3,0.299788771
00:05.3,0.80939382
00:05.3,0.207913315
00:05.3,-0.608448355
00:05.3,0.681688257
00:05.3,-0.302578118
00:05.3,0.45520925
00:05.3,0.786867108
00:05.3,0.228344005
00:05.3,-0.748079407
00:05.3,-0.459106083
00:05.3,0.661372233
00:05.3,-0.084561343
00:05.3,0.039786767
00:05.3,0.379412208
00:05.3,0.348161431
00:05.3,0.139399906
00:05.3,-0.104334186
00:05.3,-0.156334223
00:05.3,0.428949413
00:05.3,0.276784766
00:05.3,-0.12865
00:05.3,0.541056156
00:05.3,-0.064517058
00:05.3,-0.425831087
00:05.3,-0.379485349
00:05.3,-0.489370418
00:05.3,-0.136205008
00:05.3,0.616862139
00:05.3,-0.402547591
00:05.3,0.094237881
00:05.3,-0.328344673
00:05.3,-0.130154521
00:05.3,-0.755020606
00:05.3,-0.110269115
00:05.3,-0.09685269
00:05.3,0.270143972
00:05.3,0.111640457
00:05.3,-0.599196062
00:05.3,0.542099122
00:05.3,0.10515152
00:05.3,0.099196759
00:05.3,-0.004591177
00:05.3,-0.258878724
00:05.3,0.10890117
00:05.3,0.237794218
00:05.3,-0.873447846
00:05.3,-0.269380419
00:05.3,-0.127473485
00:05.3,0.128085303
00:05.3,0.596655503
00:05.3,-0.385870407
00:05.3,-0.248980923
00:05.3,-0.256267055
00:05.3,-0.400763795
00:05.3,-0.173593248
00:05.3,0.38540111
00:05.3,-0.526917748
00:05.3,0.213907198
00:05.3,-0.850951115
00:05.3,-0.280668998
00:05.3,-0.16474465
00:05.3,0.837429836
00:05.3,-0.137401152
00:05.3,-1.100621737
00:05.3,-0.999444453
00:05.3,0.017014793
00:05.3,0.306885428
00:05.4,0.187727929
00:05.4,0.083785053
00:05.4,0.581129799
00:05.4,-0.26979561
00:05.4,0.447455278
00:05.4,-0.816007443
00:05.4,-0.452473916
00:05.4,-0.903520697
00:05.4,-0.13742265
00:05.4,-0.023130609
00:05.4,0.057050746
00:05.4,0.030941676
00:05.4,-0.463776665
00:05.4,-0.095120422
00:05.4,-0.748723334
00:05.4,0.681614488
00:05.4,-0.151813036
00:05.4,-0.24444306
00:05.4,0.794470164
00:05.4,-0.621123267
00:05.4,-0.562793557
00:05.4,-0.548110162
00:05.4,-0.033935691
00:05.4,0.215815815
00:05.4,0.369837734
00:05.4,1.285997659
00:05.4,-1.124716227
00:05.4,0.304367795
00:05.4,-0.278565286
00:05.4,-0.293207574
00:05.4,-0.309886064
00:05.4,-0.454384835
00:05.4,0.842262417
00:05.4,0.421148664
00:05.4,0.011597989
00:05.4,0.675507876
00:05.4,-0.756264483
00:05.4,-0.665352566
00:05.4,-1.088983866
00:05.4,-0.34970727
00:05.4,0.080849263
00:05.4,0.051429289
00:05.4,0.074670956
00:05.4,-0.705528416
00:05.4,0.401577371
00:05.4,0.119813759
00:05.4,0.366527141
00:05.4,-0.946381089
00:05.4,0.155745429
00:05.4,-0.59388262
00:05.4,-0.198661626
00:05.4,0.267182449
00:05.4,0.045546803
00:05.4,-0.42576999
00:05.4,0.003136578
00:05.4,-0.765767658
00:05.4,0.575133698
00:05.4,-0.10264201
00:05.4,0.559274972
00:05.4,-0.263265844
00:05.4,-0.261787994
00:05.4,-0.382093393
00:05.4,0.438086966
00:05.4,-0.354715579
00:05.4,0.322297716
00:05.4,-0.191226199
00:05.4,-0.98798165
00:05.4,-0.285157034
00:05.4,-0.589554107
00:05.4,0.016951362
00:05.4,-0.595203868
00:05.4,0.46298755
00:05.4,-0.04553793
00:05.4,-0.088797997
00:05.4,0.327946069
00:05.4,0.481953467
00:05.4,-0.010049376
00:05.4,-0.38560015
00:05.4,-0.886984808
00:05.4,-0.343024879
00:05.4,-0.308606123
00:05.4,0.053528726
00:05.4,-0.172573441
00:05.4,0.343966486
00:05.4,-0.306491636
00:05.4,-0.028520583
00:05.4,0.591993722
00:05.4,0.170912607
00:05.4,-0.030018771
00:05.4,-0.300972221
00:05.4,-0.316615698
00:05.4,-0.425306626
00:05.4,-0.270503433
00:05.4,0.377832919
00:05.4,-0.110944136
00:05.4,-0.674886535
00:05.4,0.884084647
00:05.4,0.159982596
00:05.4,-0.7034717
00:05.4,-0.220924464
00:05.5,0.055443191
00:05.5,0.852296047
00:05.5,-0.554056229
00:05.5,0.48802036
00:05.5,0.699743213
00:05.5,-0.314327153
00:05.5,-0.138756809
00:05.5,-0.518154624
00:05.5,-0.101730571
00:05.5,-0.018294987
00:05.5,0.329824999
00:05.5,0.545091736
00:05.5,-0.374048032
00:05.5,-0.983662532
00:05.5,-0.01062239
00:05.5,0.146768765
00:05.5,0.124708844
00:05.5,-0.163336624
00:05.5,0.06237605
00:05.5,0.757722404
00:05.5,0.190867084
00:05.5,-0.186684213
00:05.5,-0.250098909
00:05.5,-0.084926179
00:05.5,0.818369981
00:05.5,-0.091650355
00:05.5,-0.009897172
00:05.5,-0.241156785
00:05.5,0.549491679
00:05.5,0.979918627
00:05.5,0.225306525
00:05.5,0.041386452
00:05.5,0.018391417
00:05.5,-1.192153394
00:05.5,0.372575432
00:05.5,0.067083208
00:05.5,0.214171025
00:05.5,-0.355731097
00:05.5,-0.192228439
00:05.5,-0.205512468
00:05.5,0.510811492
00:05.5,-0.189379918
00:05.5,1.041330161
00:05.5,0.21543121
00:05.5,-0.63784133
00:05.5,-0.064273147
00:05.5,-0.325837561
00:05.5,-1.097191235
00:05.5,0.79973547
00:05.5,0.351571271
00:05.5,0.266603659
00:05.5,0.08270183
00:05.5,-0.691008784
00:05.5,-0.24180857
00:05.5,0.420890387
00:05.5,-0.525610015
00:05.5,-1.265884658
00:05.5,-0.113553004
00:05.5,-0.070878777
00:05.5,0.067781708
00:05.5,0.364259322
00:05.5,0.318802906
00:05.5,0.129384903
00:05.5,0.597765694
00:05.5,-0.75948489
00:05.5,0.252290907
00:05.5,0.313269182
00:05.5,-0.619781143
00:05.5,-0.751435304
00:05.5,-0.372971063
00:05.5,-0.330770721
00:05.5,0.376709732
00:05.5,-0.307269392
00:05.5,-0.428174259
00:05.5,-0.305816868
00:05.5,0.559316167
00:05.5,0.006521687
00:05.5,-0.089625513
00:05.5,-0.055002749
00:05.5,0.646030167
00:05.5,-0.374585863
00:05.5,0.657754145
00:05.5,0.105248149
00:05.5,-0.080209691
00:05.5,1.250450249
00:05.5,-0.527819745
00:05.5,-0.17684288
00:05.5,-0.61621562
00:05.5,0.476230985
00:05.5,0.844594467
00:05.5,0.834961391
00:05.5,0.611974377
00:05.5,-0.098810234
00:05.5,-0.182620489
00:05.5,-0.835584886
00:05.5,1.017936768
00:05.5,0.234489039
00:05.5,-0.245978452
00:05.5,0.664028444
00:05.5,-0.486382258
00:05.6,0.203311017
00:05.6,-0.086314567
00:05.6,0.31933857
00:05.6,-0.03178677
00:05.6,-0.725463946
00:05.6,0.037788186
00:05.6,0.524432071
00:05.6,-0.014608203
00:05.6,0.387557561
00:05.6,-0.522764743
00:05.6,-0.013130397
00:05.6,-0.312255228
00:05.6,0.37349042
00:05.6,0.015745781
00:05.6,0.345036838
00:05.6,0.543855213
00:05.6,0.345809288
00:05.6,0.136559217
00:05.6,-0.499106129
00:05.6,-0.001393055
00:05.6,-0.266545201
00:05.6,-0.172031978
00:05.6,-0.187267075
00:05.6,-0.489962787
00:05.6,-0.978669295
00:05.6,-0.334071524
00:05.6,0.096689726
00:05.6,-0.674088523
00:05.6,0.007841118
00:05.6,0.950134212
00:05.6,0.511528278
00:05.6,0.821770755
00:05.6,0.195563938
00:05.6,0.583754911
00:05.6,-0.361982365
00:05.6,-0.322170134
00:05.6,-1.369570103
00:05.6,0.593072737
00:05.6,0.77016199
00:05.6,-0.276588623
00:05.6,-0.126975853
00:05.6,-0.376931057
00:05.6,0.191326776
00:05.6,0.562466273
00:05.6,-0.871385987
00:05.6,0.204719265
00:05.6,-0.138335886
00:05.6,0.056697196
00:05.6,0.229497001
00:05.6,-0.094101219
00:05.6,-0.051793427
00:05.6,-0.106937584
00:05.6,0.485158101
00:05.6,0.20937998
00:05.6,0.110291769
00:05.6,-0.635475861
00:05.6,-0.189289872
00:05.6,0.44933458
00:05.6,0.018848287
00:05.6,0.329765735
00:05.6,0.8832559
00:05.6,0.519303035
00:05.6,0.046579169
00:05.6,-0.255494585
00:05.6,-1.276774798
00:05.6,-0.084192461
00:05.6,-0.163006248
00:05.6,0.195183097
00:05.6,-0.076952613
00:05.6,-0.16019253
00:05.6,-0.889699465
00:05.6,-0.469983915
00:05.6,0.23832552
00:05.6,0.857953816
00:05.6,-0.048762692
00:05.6,0.163905537
00:05.6,0.476239078
00:05.6,-0.405446968
00:05.6,0.183407022
00:05.6,-0.370245053
00:05.6,0.432412219
00:05.6,0.075701524
00:05.6,0.149225907
00:05.6,-0.391299299
00:05.6,0.35351618
00:05.6,1.042356461
00:05.6,-0.503955848
00:05.6,-0.169879504
00:05.6,0.115803737
00:05.6,0.393203106
00:05.6,-0.279773143
00:05.6,-1.416515145
00:05.6,0.679594747
00:05.6,0.38025306
00:05.6,-0.871473765
00:05.6,-0.303784396
00:05.6,0.784091215
00:05.6,0.723898209
00:05.6,0.469320011
00:05.6,-0.088056217
00:05.7,0.041493709
00:05.7,-0.065462903
00:05.7,0.564119892
00:05.7,-0.437921203
00:05.7,-0.402899827
00:05.7,0.505137293
00:05.7,-0.022180728
00:05.7,0.689233678
00:05.7,-0.335756103
00:05.7,-0.02738918
00:05.7,-0.461206492
00:05.7,0.003681341
00:05.7,-0.739273468
00:05.7,-0.24381671
00:05.7,-0.718126932
00:05.7,0.346961617
00:05.7,0.35829467
00:05.7,-0.865131365
00:05.7,0.666942873
00:05.7,1.248707563
00:05.7,0.023003193
00:05.7,-0.32055713
00:05.7,1.412165296
00:05.7,-0.659484249
00:05.7,0.010053233
00:05.7,0.089811136
00:05.7,0.67257381
00:05.7,0.179869488
00:05.7,-0.249316948
00:05.7,-0.475592185
00:05.7,-0.17091091
00:05.7,-0.50346368
00:05.7,0.02391266
00:05.7,-0.28209809
00:05.7,-0.747018897
00:05.7,0.627572894
00:05.7,-0.248836262
00:05.7,-0.634068402
00:05.7,-0.084129567
00:05.7,0.034185783
00:05.7,-0.873233363
00:05.7,0.165823834
00:05.7,-0.523578784
00:05.7,0.855514405
00:05.7,0.261980256
00:05.7,-0.199949995
00:05.7,-0.372583885
00:05.7,-0.052483854
00:05.7,0.306395371
00:05.7,-0.012747064
00:05.7,-0.108579404
00:05.7,0.029185145
00:05.7,-0.301929466
00:05.7,-0.171602963
00:05.7,-1.042896219
00:05.7,0.486863115
00:05.7,0.14939889
00:05.7,-0.386727922
00:05.7,0.949367491
00:05.7,0.04350824
00:05.7,-0.518071786
00:05.7,0.428368711
00:05.7,0.199024108
00:05.7,0.197289993
00:05.7,-0.212877802
00:05.7,0.225247862
00:05.7,-0.130879145
00:05.7,0.277970726
00:05.7,-0.952472227
00:05.7,-0.216936731
00:05.7,0.861077549
00:05.7,-0.383533728
00:05.7,-0.301919149
00:05.7,-0.223980669
00:05.7,-0.607403068
00:05.7,-1.104140388
00:05.7,-0.115293199
00:05.7,0.067929712
00:05.7,-0.026252534
00:05.7,-0.072439281
00:05.7,0.021520435
00:05.7,0.511420736
00:05.7,-0.095223093
00:05.7,-0.287041289
00:05.7,-0.140562742
00:05.7,0.28967338
00:05.7,0.706013439
00:05.7,-0.31407187
00:05.7,0.049466894
00:05.7,0.169178721
00:05.7,-0.496289003
00:05.7,0.010208584
00:05.7,-0.732836929
00:05.7,-0.884525152
00:05.7,0.183373204
00:05.7,-0.191937371
00:05.7,0.101140204
00:05.7,-0.008947489
00:05.7,-0.488200024
00:05.7,-0.022627151
00:05.8,-0.616550653
00:05.8,0.695486179
00:05.8,-0.677985172
00:05.8,-0.097892635
00:05.8,-0.521135794
00:05.8,0.285210587
00:05.8,-0.165715686
00:05.8,-0.25933336
00:05.8,0.426600773
00:05.8,0.014715296
00:05.8,0.258322223
00:05.8,-0.490662968
00:05.8,-0.702408472
00:05.8,0.053603981
00:05.8,-0.159423178
00:05.8,0.313217336
00:05.8,-0.039954226
00:05.8,0.10253767
00:05.8,-0.811691265
00:05.8,0.94421847
00:05.8,-0.082120993
00:05.8,0.348793485
00:05.8,-0.418045835
00:05.8,0.154004951
00:05.8,-0.651422382
00:05.8,0.226033919
00:05.8,-0.177987042
00:05.8,0.014595252
00:05.8,0.348987015
00:05.8,-0.616270156
00:05.8,-0.342245865
00:05.8,0.228662141
00:05.8,1.049110737
00:05.8,-0.069041167
00:05.8,0.295568059
00:05.8,-0.053485735
00:05.8,0.971122797
00:05.8,-0.873610833
00:05.8,0.047310522
00:05.8,-0.812772017
00:05.8,-1.253285785
00:05.8,0.148731027
00:05.8,0.069748898
00:05.8,-0.142418469
00:05.8,-0.053097045
00:05.8,1.549149717
00:05.8,-0.129087569
00:05.8,0.255062181
00:05.8,-0.32468241
00:05.8,0.147616288
00:05.8,-0.119116838
00:05.8,-0.205259241
00:05.8,0.909449266
00:05.8,0.588592482
00:05.8,0.068373324
00:05.8,-1.152105968
00:05.8,-0.180504612
00:05.8,1.351513782
00:05.8,-0.115330833
00:05.8,0.551608786
00:05.8,0.720971201
00:05.8,0.109481958
00:05.8,-0.420910816
00:05.8,-1.217656166
00:05.8,0.342081604
00:05.8,-0.407378001
00:05.8,0.088075226
00:05.8,-0.62491017
00:05.8,-0.13261877
00:05.8,0.016859527
00:05.8,0.134296791
00:05.8,-0.557411094
00:05.8,0.598455474
00:05.8,-0.298447392
00:05.8,-0.83723473
00:05.8,-0.05451171
00:05.8,0.017187655
00:05.8,0.080294717
00:05.8,0.681066202
00:05.8,-0.118224418
00:05.8,-0.059809812
00:05.8,-0.551592191
00:05.8,0.410276751
00:05.8,0.092154532
00:05.8,-0.210013864
00:05.8,-0.952337347
00:05.8,0.722206098
00:05.8,-0.613839982
00:05.8,-0.295639005
00:05.8,0.179172256
00:05.8,-0.598278964
00:05.8,-0.746754889
00:05.8,-1.061973791
00:05.8,0.360498476
00:05.8,-0.272593122
00:05.8,1.463635046
00:05.8,-0.497177533
00:05.8,-0.460725512
00:05.8,-0.282696485
00:05.8,0.121567328
00:05.9,-0.235101669
00:05.9,0.306166107
00:05.9,-0.489294195
00:05.9,-0.690795859
00:05.9,-0.89910737
00:05.9,-1.111787084
00:05.9,-0.25903451
00:05.9,-0.150490156
00:05.9,-0.315718514
00:05.9,0.621702899
00:05.9,0.614015105
00:05.9,-0.167401494
00:05.9,-0.896960557
00:05.9,-0.283352554
00:05.9,-0.299910697
00:05.9,-0.328567481
00:05.9,-0.348859452
00:05.9,-0.326731448
00:05.9,-0.193270808
00:05.9,-0.317770549
00:05.9,0.104161254
00:05.9,0.180184358
00:05.9,-0.455322544
00:05.9,0.635532663
00:05.9,-0.490031151
00:05.9,-0.808900307
00:05.9,0.190389036
00:05.9,-0.408704067
00:05.9,0.160645735
00:05.9,-1.201834301
00:05.9,0.696227971
00:05.9,0.336146704
00:05.9,-0.750238275
00:05.9,-0.739388562
