x,y
0.0,-3.713142656031926e-05
0.004008016032064128,-5.108328455940306e-05
0.008016032064128256,-7.005178077480788e-05
0.012024048096192383,-9.575525301137991e-05
0.01603206412825651,-0.0001304694895328169
0.02004008016032064,-0.00017719770729118938
0.024048096192384766,-0.00023988873524479496
0.028056112224448895,-0.00032371592144870437
0.03206412825651302,-0.00043543218570032743
0.03607214428857715,-0.0005838201160078672
0.04008016032064128,-0.0007802601428490971
0.044088176352705406,-0.001039444711323386
0.04809619238476953,-0.0013802721025521808
0.052104208416833664,-0.0018269602274025934
0.05611222444889779,-0.002410428420003551
0.06012024048096192,-0.003170004079659287
0.06412825651302605,-0.0041555210171937374
0.06813627254509018,-0.00542988760263826
0.0721442885771543,-0.007072215300719276
0.07615230460921843,-0.009181611890796136
0.08016032064128256,-0.011881758514418288
0.08416833667334668,-0.015326405521069671
0.08817635270541081,-0.019705938647956035
0.09218436873747494,-0.025255184024606695
0.09619238476953906,-0.03226263736540839
0.1002004008016032,-0.041081318887888074
0.10420841683366733,-0.05214147019514777
0.10821643286573146,-0.06596532163248132
0.11222444889779558,-0.08318416732327642
0.11623246492985971,-0.10455798885730655
0.12024048096192384,-0.13099786588749673
0.12424849699398796,-0.16359140092698524
0.1282565130260521,-0.203631364472865
0.13226452905811623,-0.25264773309491834
0.13627254509018036,-0.3124432450656124
0.1402805611222445,-0.3851325331433551
0.1442885771543086,-0.4731848099194863
0.14829659318637273,-0.5794699754469804
0.15230460921843686,-16.585641504446258
0.156312625250501,-43.37031383092813
0.16032064128256512,-67.50303242955553
0.16432865731462926,-87.47793029028568
0.16833667334669336,-102.0542933719804
0.1723446893787575,-110.33524206740317
0.17635270541082163,-111.8247650591791
0.18036072144288576,-106.45950902302248
0.1843687374749499,-94.61331954468051
0.18837675350701402,-77.07424684020604
0.19238476953907813,-54.99546599983874
0.19639278557114226,-29.82320598054513
0.2004008016032064,-3.2062307003462482
0.20440881763527052,23.10742208351761
0.20841683366733466,47.379936226796026
0.2124248496993988,67.99254761966495
0.21643286573146292,83.54685415657275
0.22044088176352702,92.95222640309399
0.22444889779559116,95.49381922151778
0.2284569138276553,90.87691078701535
0.23246492985971942,79.24479126517733
0.23647294589178355,61.16909452165656
0.24048096192384769,37.61320712368767
0.2444889779559118,9.871089689188773
0.24849699398797592,-20.514601018244676
0.25250501002004005,-34.601793494160226
0.2565130260521042,-38.61182160858503
0.2605210420841683,-42.921068150625345
0.26452905811623245,-47.524961367354166
0.2685370741482966,-52.4135182488415
0.2725450901803607,-57.57059832387432
0.27655310621242485,-62.97315426951922
0.280561122244489,-68.59049458043258
0.28456913827655306,-74.38357550531653
0.2885771543086172,-80.30434126099276
0.2925851703406813,-86.2951331081726
0.29659318637274545,-92.28818914353752
0.3006012024048096,-98.20525755603448
0.3046092184368737,-103.95734653882631
0.30861723446893785,-109.44463397371318
0.312625250501002,-114.55655935033444
0.3166332665330661,-119.17211909570989
0.32064128256513025,-123.16038453031757
0.3246492985971944,-126.3812590091345
0.3286573146292585,-128.6864874410234
0.33266533066132264,-129.9209273176758
0.3366733466933867,-129.92408565487975
0.34068136272545085,-128.5319209069667
0.344689378757515,-125.57890303527259
0.3486973947895791,-120.90031859132019
0.35270541082164325,-114.33480103508091
0.3567134268537074,-105.72705968850575
0.3607214428857715,-94.93077388318311
0.36472945891783565,-81.81161217248642
0.3687374749498998,-66.25033012846093
0.3727454909819639,-48.14589442473404
0.37675350701402804,-27.418575813762292
0.3807615230460922,-4.012949431246484
0.38476953907815625,22.09926221532046
0.3887775551102204,50.91657002654986
0.3927855711422845,82.4053897101878
0.39679358717434865,116.49806951919886
0.4008016032064128,153.09133730478894
0.4048096192384769,192.04522545691526
0.40881763527054105,233.18252623840036
0.4128256513026052,276.2888223310348
0.4168336673346693,321.1131281922596
0.42084168336673344,367.36916720639925
0.4248496993987976,414.73729778934063
0.4288577154308617,462.8670887988933
0.43286573146292584,511.380531084263
0.4368737474949899,559.8758580812748
0.44088176352705405,607.9319343571174
0.4448897795591182,655.113157280471
0.4488977955911823,700.9748039008272
0.45290581162324645,745.068743024577
0.4569138276553106,786.9494217237292
0.4609218436873747,826.1800264318815
0.46492985971943884,862.3387116640383
0.468937875751503,895.02478449133
0.4729458917835671,923.8647304053796
0.47695390781563124,948.5179662564158
0.48096192384769537,968.6822086144743
0.4849699398797595,984.0983511840047
0.4889779559118236,994.5547527266666
0.4929859719438877,999.8908471711804
0.49699398797595185,1000.0000000000001
0.501002004008016,994.8315493239782
0.5050100200400801,984.391985955201
0.5090180360721442,968.7452438849177
0.5130260521042084,948.0120904516757
0.5170340681362725,922.3686237040049
0.5210420841683366,892.0439025706453
0.5250501002004008,857.3167529999067
0.5290581162324649,818.5118097842313
0.533066132264529,775.9948689404815
0.5370741482965932,730.1676389049252
0.5410821643286573,681.461990108653
0.5450901803607214,630.3338114674854
0.5490981963927856,577.2565887593539
0.5531062124248497,522.7148236507746
0.5571142284569138,467.1974132240452
0.561122244488978,411.1911082722564
0.565130260521042,355.1741644642755
0.5691382765531061,299.6102938965132
0.5731462925851702,244.94301576203935
0.5771543086172344,191.59049415144932
0.5811623246492985,139.94093866754193
0.5851703406813626,90.34862993302053
0.5891783567134268,43.13061756462197
0.5931863727454909,-1.4358768437528098
0.597194388777555,-43.11533436447059
0.6012024048096192,-81.71508860012744
0.6052104208416833,-117.08576275405639
0.6092184368737474,-149.12101940138686
0.6132264529058116,-177.75666079737448
0.6172344689378757,-202.96912849830272
0.6212424849699398,-224.7734604128894
0.625250501002004,-243.2207710068076
0.6292585170340681,-258.39532615902453
0.6332665330661322,-270.411288076637
0.6372745490981964,-279.4092077247745
0.6412825651302605,-285.5523424766338
0.6452905811623246,-289.0228752350329
0.6492985971943888,-290.01810825777426
0.6533066132264529,-445.77942691399505
0.657314629258517,-470.13613296980964
0.6613226452905812,-485.1913776366292
0.6653306613226453,-490.3492778474259
0.6693386773547093,-485.347155625427
0.6733466933867734,-470.2722990479529
0.6773547094188376,-445.56468263740635
0.6813627254509017,-412.00545545187356
0.6853707414829658,-370.6915862197216
0.68937875751503,-322.9976209990619
0.6933867735470941,-270.5260369829375
0.6973947895791582,-215.04814468807072
0.7014028056112224,-158.43788074140528
0.7054108216432865,-102.60112888239384
0.7094188376753506,-49.4033955308938
0.7134268537074148,-0.5987405565466584
0.7174348697394789,42.2371794066871
0.721442885771543,77.76725698956967
0.7254509018036072,104.94384017805864
0.7294589178356713,123.04833681554827
0.7334669338677354,131.71790749598833
0.7374749498997996,130.95815423002009
0.7414829659318637,121.14127454411882
0.7454909819639278,102.98973509451739
0.749498997995992,77.54610180167217
0.7535070140280561,46.13022134222932
0.7575150300601202,10.285458981572708
0.7615230460921844,-28.283860482869983
0.7655310621242485,-67.7813063868981
0.7695390781563125,-106.39073339331759
0.7735470941883766,-142.34930941151384
0.7775551102204408,-174.01825266984278
0.7815631262525049,-199.9484416963484
0.785571142284569,-218.9382677593043
0.7895791583166332,-230.08141131963254
0.7935871743486973,-232.80262969027333
0.7975951903807614,-226.88012602920247
0.8016032064128256,-212.45361052794084
0.8056112224448897,-190.0177413673966
0.8096192384769538,-160.40122240800665
0.813627254509018,-124.7324128525426
0.8176352705410821,-84.3928479026701
0.8216432865731462,-40.960556748623794
0.8256513026052104,3.854524612157103
0.8296593186372745,48.280429858725846
0.8336673346693386,90.55549954804253
0.8376753507014028,129.000251994262
0.8416833667334669,162.08588057681757
0.845691382765531,188.4966074702775
0.8496993987975952,207.1833729389207
0.8537074148296593,-0.8763309555718142
0.8577154308617234,-0.7142210051978555
0.8617234468937875,-0.5802129110343672
0.8657314629258517,-0.4698222502953448
0.8697394789579158,-0.37920340199835856
0.8737474949899798,-0.30507334985320456
0.877755511022044,-0.24464176065254034
0.8817635270541081,-0.1955473793907694
0.8857715430861722,-0.1558006389335277
0.8897795591182364,-0.12373227044666163
0.8937875751503005,-0.09794761738442477
0.8977955911823646,-0.07728629697384842
0.9018036072144288,-0.06078681521334729
0.9058116232464929,-0.04765572098190952
0.909819639278557,-0.03724087871389049
0.9138276553106212,-0.029008444297692622
0.9178356713426853,-0.022523142780595473
0.9218436873747494,-0.017431466808581198
0.9258517034068136,-0.013447439526760033
0.9298597194388777,-0.01034061325531184
0.9338677354709418,-0.007926004275770001
0.937875751503006,-0.006055693422043748
0.9418837675350701,-0.004611851021666433
0.9458917835671342,-0.0035009724401615706
0.9498997995991983,-0.0026491365927768453
0.9539078156312625,-0.0019981240044376057
0.9579158316633266,-0.001502253148144607
0.9619238476953907,-0.0011258138028347505
0.9659318637274549,-0.0008409940512819961
0.969939879759519,-0.000626213353375577
0.9739478957915831,-0.00046478798885665756
0.9779559118236472,-0.000343867203447139
0.9819639278557113,-0.0002535887673000324
0.9859719438877754,-0.00018641152668414895
0.9899799599198396,-0.00013659006140910577
0.9939879759519037,-9.97629098609656e-05
0.9979959919839678,-7.263114062729884e-05
1.002004008016032,-5.270847385990516e-05
1.006012024048096,-3.8127813953666975e-05
1.0100200400801602,-2.7492062231781343e-05
1.0140280561122244,-1.9759535704619043e-05
1.0180360721442885,-1.415631474475666e-05
1.0220440881763526,-1.0109456072050957e-05
1.0260521042084167,-7.1963042864850845e-06
1.0300601202404809,-5.106171984104736e-06
1.034068136272545,-3.6114830988237967e-06
1.0380761523046091,-2.546126626036449e-06
1.0420841683366733,-1.7892816416239674e-06
1.0460921843687374,-1.2533770519231897e-06
1.0501002004008015,-8.751633555825212e-07
1.0541082164328657,-6.091172362430894e-07
1.0581162324649298,-4.225878971465076e-07
1.062124248496994,-2.9223864386521263e-07
1.066132264529058,-2.0144786833466493e-07
1.0701402805611222,-1.3841787258681326e-07
1.0741482965931863,-9.480388669126412e-08
1.0781563126252505,-6.472388972544838e-08
1.0821643286573146,-4.404611260229784e-08
1.0861723446893787,-2.9878244867623726e-08
1.0901803607214429,-2.020259297307793e-08
1.094188376753507,-1.3616443605401284e-08
1.0981963927855711,-9.14797197697547e-09
1.1022044088176353,-6.126190892809647e-09
1.1062124248496994,-4.089411368638694e-09
1.1102204408817635,-2.7210445844208813e-09
1.1142284569138277,-1.8047419206628163e-09
1.1182364729458918,-1.1931612832113707e-09
1.122244488977956,-7.86299144306584e-10
1.12625250501002,-5.165127706216702e-10
1.130260521042084,-3.3820415615422754e-10
1.134268537074148,-2.2074020302592312e-10
1.1382765531062122,-1.4361128248911558e-10
1.1422845691382764,-9.31322967813148e-11
1.1462925851703405,-6.020280134096292e-11
1.1503006012024046,-3.879160283135658e-11
1.1543086172344688,-2.4915143337869324e-11
1.158316633266533,-1.5951212461994078e-11
1.162324649298597,-1.017955179301137e-11
1.1663326653306612,-6.4754247802301235e-12
1.1703406813627253,-4.105939271346381e-12
1.1743486973947894,-2.5951438441412174e-12
1.1783567134268536,-1.6349896395712648e-12
1.1823647294589177,-1.026770147984376e-12
1.1863727454909818,-6.427411754177372e-13
1.190380761523046,-4.010547586628839e-13
1.19438877755511,-2.4944562338439596e-13
1.1983967935871742,-1.5465101269442771e-13
1.2024048096192383,-9.557280100004566e-14
1.2064128256513025,-5.887359119297063e-14
1.2104208416833666,-3.615025874604462e-14
1.2144288577154307,-2.2126206538165855e-14
1.2184368737474949,-1.3499173665771914e-14
1.222444889779559,-8.209412504904478e-15
1.2264529058116231,-4.976472916747327e-15
1.2304609218436873,-3.0070170059449136e-15
1.2344689378757514,-1.8111515726561345e-15
1.2384769539078155,-1.0873725986649344e-15
1.2424849699398797,-6.50738717668799e-16
1.2464929859719438,-3.8818574672104663e-16
1.250501002004008,-2.308219995814113e-16
1.254509018036072,-1.368105186387168e-16
1.2585170340681362,-8.082886053610219e-17
1.2625250501002003,-4.7601221897287584e-17
1.2665330661322645,-2.794308958363329e-17
1.2705410821643286,-1.635066509562384e-17
1.2745490981963927,-9.536765447463259e-18
1.2785571142284569,-5.544615802347436e-18
1.282565130260521,-3.2132646340039457e-18
1.2865731462925851,-1.856206156994175e-18
1.2905811623246493,-1.0688348430001285e-18
1.2945891783567134,-6.134789654274502e-19
1.2985971943887775,-3.50988938469421e-19
1.3026052104208417,-2.0016671544408872e-19
1.3066132264529058,-1.1378761010314327e-19
1.31062124248497,-6.447669519653823e-20
1.314629258517034,-3.641792883122115e-20
1.3186372745490982,-2.050370746247965e-20
1.3226452905811623,-1.1506791172382746e-20
1.3266533066132264,-6.436959056979803e-21
1.3306613226452906,-3.589318048707611e-21
1.3346693386773545,-1.995022599250118e-21
1.3386773547094186,-1.105320888565466e-21
1.3426853707414828,-6.104268334795682e-22
1.3466933867735469,-3.360342434423447e-22
1.350701402805611,-1.8439032821289272e-22
1.3547094188376752,-1.0085499673950202e-22
1.3587174348697393,-5.498717185665148e-23
1.3627254509018034,-2.9883401388134083e-23
1.3667334669338675,-1.6188378666674392e-23
1.3707414829659317,-8.741407419052515e-24
1.3747494989979958,-4.7050479254804696e-24
1.37875751503006,-2.5243607691079056e-24
1.382765531062124,-1.3500301713047279e-24
1.3867735470941882,-7.196812835575466e-25
1.3907815631262523,-3.824209039901883e-25
1.3947895791583165,-2.025572167133589e-25
1.3987975951903806,-1.0694451114013414e-25
1.4028056112224447,-5.628257516362847e-26
1.4068136272545089,-2.952528525131965e-26
1.410821643286573,-1.5438991424691386e-26
1.4148296593186371,-8.047267381221953e-27
1.4188376753507013,-4.181023599834187e-27
1.4228456913827654,-2.1653170124487382e-27
1.4268537074148295,-1.1178024032222199e-27
1.4308617234468937,-5.7519257565827615e-28
1.4348697394789578,-2.950300047519247e-28
1.438877755511022,-1.5084252119957532e-28
1.442885771543086,-7.687516498777271e-29
1.4468937875751502,-3.9052875861420413e-29
1.4509018036072143,-1.9775372043877139e-29
1.4549098196392785,-9.981618951200801e-30
1.4589178356713426,-5.022061101415247e-30
1.4629258517034067,-2.5186491832128664e-30
1.4669338677354709,-1.2590936952880996e-30
1.470941883767535,-6.274124041676309e-31
1.4749498997995991,-3.116397403480708e-31
1.4789579158316633,-1.5429691715418864e-31
1.4829659318637274,-7.61493754936823e-32
1.4869739478957915,-3.7461065428462044e-32
1.4909819639278556,-1.8369552890715314e-32
1.4949899799599198,-8.978870929058414e-33
1.498997995991984,-4.374712865570151e-33
1.503006012024048,-2.1246238874896284e-33
1.5070140280561122,-1.028535411405056e-33
1.5110220440881763,-4.963192491457143e-34
1.5150300601202404,-2.387303702349917e-34
1.5190380761523046,-1.1446136110320302e-34
1.5230460921843687,-5.470346326498788e-35
1.5270541082164328,-2.6060060557503353e-35
1.531062124248497,-1.2374871581561549e-35
1.535070140280561,-5.8574779576340244e-36
1.539078156312625,-2.76366441819819e-36
1.5430861723446891,-1.2997643865608556e-36
1.5470941883767533,-6.093245005510712e-37
1.5511022044088174,-2.847326900255319e-37
1.5551102204408815,-1.3262662041010894e-37
1.5591182364729457,-6.157845055933686e-38
1.5631262525050098,-2.8499122807977476e-38
1.567134268537074,-1.3147370767355916e-38
1.571142284569138,-6.045761495794581e-39
1.5751503006012022,-2.7711995004458377e-39
1.5791583166332663,-1.2661619427460515e-39
1.5831663326653305,-5.766541227594183e-40
1.5871743486973946,-2.6178588645820938e-40
1.5911823647294587,-1.1846273044761427e-40
1.5951903807615229,-5.343452215151043e-41
1.599198396793587,-2.4025188480745945e-41
1.6032064128256511,-1.0767536655331026e-41
1.6072144288577153,-4.8102826522942305e-42
1.6112224448897794,-2.1420495642874574e-42
1.6152304609218435,-9.508086343974174e-43
1.6192384769539077,-4.206892361788303e-43
1.6232464929859718,-1.855386385420442e-43
1.627254509018036,-8.156653483159106e-44
1.6312625250501,-3.574327494765051e-44
1.6352705410821642,-1.5612820008485093e-44
1.6392785571142283,-6.797872990685325e-45
1.6432865731462925,-2.9503220233082865e-45
1.6472945891783566,-1.2763520439768842e-45
1.6513026052104207,-5.503972016775977e-46
1.6553106212424848,-2.3658469068960788e-46
1.659318637274549,-1.013682014737538e-46
1.6633266533066131,-4.329338325123607e-47
1.6673346693386772,-1.843087666100326e-47
1.6713426853707414,-7.821231516940883e-48
1.6753507014028055,-3.308331137460752e-48
1.6793587174348696,-1.3949141674657928e-48
1.6833667334669338,-5.862605619256699e-49
1.687374749498998,-2.456057650143865e-49
1.691382765531062,-1.0256309438578777e-49
1.6953907815631262,-4.269218236488393e-50
1.6993987975951903,-1.7713740514640055e-50
1.7034068136272544,-7.326168161536367e-51
1.7074148296593186,-3.0202866954551725e-51
1.7114228456913827,-1.24114961828154e-51
1.7154308617234468,-5.0839911806701434e-52
1.719438877755511,-2.075822050359168e-52
1.723446893787575,-8.448510249906889e-53
1.7274549098196392,-3.427479229589214e-53
1.7314629258517034,-1.386035040879732e-53
1.7354709418837675,-5.586994840094729e-54
1.7394789579158316,-2.244848374862005e-54
1.7434869739478958,-8.99084347092746e-55
1.7474949899799597,-3.589372597397766e-55
1.7515030060120238,-1.4283720093170687e-55
1.755511022044088,-5.665898643217654e-56
1.759519038076152,-2.240273044023767e-56
1.7635270541082162,-8.829534083266385e-57
1.7675350701402803,-3.468800342132764e-57
1.7715430861723445,-1.3583932077579098e-57
1.7755511022044086,-5.3024475497762475e-58
1.7795591182364727,-2.063155410899753e-58
1.7835671342685369,-8.001882817236478e-59
1.787575150300601,-3.0935498090678273e-59
1.7915831663326651,-1.1921385194406146e-59
1.7955911823647293,-4.5793201872688275e-60
1.7995991983967934,-1.7533958823528143e-60
1.8036072144288575,-6.692118707539567e-61
1.8076152304609217,-2.5459623193748363e-61
1.8116232464929858,-9.654837962540707e-62
1.81563126252505,-3.649578328150064e-62
1.819639278557114,-1.3751341600183208e-62
1.8236472945891782,-5.164783653505414e-63
1.8276553106212423,-1.9335877219677255e-63
1.8316633266533064,-7.215730546433781e-64
1.8356713426853706,-2.684116838971789e-64
1.8396793587174347,-9.952385918164357e-65
1.8436873747494988,-3.678389222476245e-65
1.847695390781563,-1.3551670602768695e-65
1.851703406813627,-4.976599300139793e-66
1.8557114228456912,-1.8217014056809077e-66
1.8597194388777554,-6.64701095750537e-67
1.8637274549098195,-2.4175767920582373e-67
1.8677354709418836,-8.764736075746881e-68
1.8717434869739478,-3.167394004278426e-68
1.875751503006012,-1.1409589499575538e-68
1.879759519038076,-4.096779885433708e-69
1.8837675350701402,-1.4662901716884082e-69
1.8877755511022043,-5.2312069170037634e-70
1.8917835671342684,-1.860323857248923e-70
1.8957915831663326,-6.594469964904918e-71
1.8997995991983967,-2.330107273265918e-71
1.9038076152304608,-8.206852318252175e-72
1.907815631262525,-2.8812570358758365e-72
1.911823647294589,-1.008305346653549e-72
1.9158316633266532,-3.517278998413633e-73
1.9198396793587174,-1.2229994160051522e-73
1.9238476953907815,-4.238872584537074e-74
1.9278557114228456,-1.4644655407917384e-74
1.9318637274549098,-5.043274810908075e-75
1.9358717434869739,-1.7312141470661382e-75
1.939879759519038,-5.923707870267545e-76
1.9438877755511021,-2.0204176583117405e-76
1.9478957915831663,-6.8689975282021174e-77
1.9519038076152302,-2.3278245634548247e-77
1.9559118236472943,-7.863426197758117e-78
1.9599198396793585,-2.6477566380341037e-78
1.9639278557114226,-8.886873492862909e-79
1.9679358717434867,-2.9732033418869994e-79
1.9719438877755509,-9.915278304929366e-80
1.975951903807615,-3.29602036901357e-80
1.9799599198396791,-1.0921431022288888e-80
1.9839679358717432,-3.6072304589191465e-81
1.9879759519038074,-1.187607450890544e-81
1.9919839679358715,-3.8974147084974214e-82
1.9959919839679356,-1.2749260881383264e-82
2.0,-4.157172809414137e-83
